date,open,high,low,close,volume
2019-01-09 00:00:00+05:30,30.2,31.0,29.7,29.95,41795
2019-01-10 00:00:00+05:30,30.9,30.9,29.7,30.0,45485
2019-01-11 00:00:00+05:30,29.6,31.0,29.5,29.7,81670
2019-01-14 00:00:00+05:30,29.95,29.95,28.5,28.75,104588
2019-01-15 00:00:00+05:30,28.2,28.9,27.6,27.65,52565
2019-01-16 00:00:00+05:30,27.6,27.65,26.3,26.3,100561
2019-01-17 00:00:00+05:30,26.0,26.0,25.2,25.5,113250
2019-01-18 00:00:00+05:30,25.0,25.7,24.35,24.55,47623
2019-01-21 00:00:00+05:30,24.1,24.4,23.6,24.3,55720
2019-01-22 00:00:00+05:30,23.9,24.2,23.5,24.0,74663
2019-01-23 00:00:00+05:30,24.0,24.8,24.0,24.35,25278
2019-01-24 00:00:00+05:30,24.35,24.55,23.8,23.95,36712
2019-01-25 00:00:00+05:30,23.8,24.45,23.75,23.8,38182
2019-01-28 00:00:00+05:30,23.8,23.8,22.7,22.85,152089
2019-01-29 00:00:00+05:30,23.35,23.55,23.0,23.35,65070
2019-01-30 00:00:00+05:30,23.1,24.25,23.1,24.1,55417
2019-01-31 00:00:00+05:30,24.0,24.5,24.0,24.1,13843
2019-02-01 00:00:00+05:30,24.1,24.85,23.7,24.5,16972
2019-02-04 00:00:00+05:30,24.0,24.0,23.3,23.35,47319
2019-02-05 00:00:00+05:30,23.1,23.5,22.5,22.65,13792
2019-02-06 00:00:00+05:30,22.35,23.65,22.35,23.05,12456
2019-02-07 00:00:00+05:30,23.2,23.25,22.6,23.0,15537
2019-02-08 00:00:00+05:30,22.8,23.1,22.75,22.8,18320
2019-02-11 00:00:00+05:30,22.65,23.25,22.0,22.35,18852
2019-02-12 00:00:00+05:30,22.7,22.75,22.0,22.1,14535
2019-02-13 00:00:00+05:30,22.0,22.5,21.8,22.25,13655
2019-02-14 00:00:00+05:30,22.4,22.4,21.55,21.75,12568
2019-02-15 00:00:00+05:30,21.8,22.1,21.65,22.0,8118
2019-02-18 00:00:00+05:30,22.05,22.05,20.9,20.95,63665
2019-02-19 00:00:00+05:30,20.95,21.5,20.7,21.25,14879
2019-02-20 00:00:00+05:30,20.4,21.4,20.4,20.8,19364
2019-02-21 00:00:00+05:30,21.2,21.5,21.0,21.5,26510
2019-02-22 00:00:00+05:30,21.45,22.35,21.2,22.0,25356
2019-02-25 00:00:00+05:30,22.0,22.5,21.85,21.95,15093
2019-02-26 00:00:00+05:30,22.0,22.7,21.6,22.55,12093
2019-02-27 00:00:00+05:30,22.55,22.9,21.45,21.45,23431
2019-02-28 00:00:00+05:30,21.15,21.9,20.5,21.65,27074
2019-03-01 00:00:00+05:30,21.95,22.7,21.4,22.65,19396
2019-03-05 00:00:00+05:30,22.65,23.75,22.55,23.6,18783
2019-03-06 00:00:00+05:30,23.65,24.55,23.65,24.2,15172
2019-03-07 00:00:00+05:30,23.9,24.2,23.75,23.95,8950
2019-03-08 00:00:00+05:30,23.75,23.85,22.95,23.2,32655
2019-03-11 00:00:00+05:30,22.9,23.7,22.85,23.7,40181
2019-03-12 00:00:00+05:30,23.35,24.0,23.35,23.7,33281
2019-03-13 00:00:00+05:30,23.55,23.8,23.0,23.15,7406
2019-03-14 00:00:00+05:30,23.05,23.4,22.1,22.7,8224
2019-03-15 00:00:00+05:30,22.95,23.3,22.6,23.05,76583
2019-03-18 00:00:00+05:30,22.85,23.6,22.5,23.0,5729
2019-03-19 00:00:00+05:30,22.4,23.4,22.4,23.05,36959
2019-03-20 00:00:00+05:30,23.0,23.0,22.3,22.5,15932
2019-03-22 00:00:00+05:30,22.65,23.0,22.3,22.65,8530
2019-03-25 00:00:00+05:30,22.6,22.6,21.6,22.1,8978
2019-03-26 00:00:00+05:30,22.2,22.2,21.6,21.85,39659
2019-03-27 00:00:00+05:30,21.95,22.4,21.55,21.75,66944
2019-03-28 00:00:00+05:30,21.75,22.0,21.3,21.4,48384
2019-03-29 00:00:00+05:30,21.45,21.6,21.05,21.3,12827
2019-04-01 00:00:00+05:30,21.35,22.35,21.35,22.35,25329
2019-04-02 00:00:00+05:30,22.35,23.15,22.35,22.6,6275
2019-04-03 00:00:00+05:30,22.6,23.1,22.15,22.35,11215
2019-04-04 00:00:00+05:30,22.35,22.5,22.1,22.2,3611
2019-04-05 00:00:00+05:30,22.25,22.6,22.05,22.4,10451
2019-04-08 00:00:00+05:30,21.65,22.75,21.65,22.35,8673
2019-04-09 00:00:00+05:30,22.3,22.9,22.1,22.3,60257
2019-04-10 00:00:00+05:30,22.25,22.9,22.1,22.5,56474
2019-04-11 00:00:00+05:30,23.5,23.5,22.25,22.25,17758
2019-04-12 00:00:00+05:30,22.25,22.8,22.1,22.3,14506
2019-04-15 00:00:00+05:30,22.5,23.0,22.5,22.5,20060
2019-04-16 00:00:00+05:30,22.05,22.95,22.05,22.25,14395
2019-04-18 00:00:00+05:30,22.2,22.9,22.2,22.4,11678
2019-04-22 00:00:00+05:30,22.05,22.4,21.4,21.45,18190
2019-04-23 00:00:00+05:30,21.15,22.6,20.85,20.95,44977
2019-04-24 00:00:00+05:30,22.65,22.65,20.95,21.15,9312
2019-04-25 00:00:00+05:30,21.25,21.7,21.05,21.15,8157
2019-04-26 00:00:00+05:30,21.25,21.5,20.8,21.0,13200
2019-04-30 00:00:00+05:30,21.05,21.05,20.1,20.5,5497
2019-05-02 00:00:00+05:30,21.35,21.35,20.05,20.7,12073
2019-05-03 00:00:00+05:30,20.6,22.7,20.6,20.8,38700
2019-05-06 00:00:00+05:30,20.35,20.95,20.3,20.55,5593
2019-05-07 00:00:00+05:30,20.2,20.9,20.2,20.85,1263
2019-05-08 00:00:00+05:30,20.65,20.9,19.85,20.3,5383
2019-05-09 00:00:00+05:30,20.35,20.7,19.95,20.7,1456
2019-05-10 00:00:00+05:30,20.65,21.0,20.0,20.7,14337
2019-05-13 00:00:00+05:30,20.55,20.55,19.95,20.05,4761
2019-05-14 00:00:00+05:30,20.05,20.2,18.95,19.9,18053
2019-05-15 00:00:00+05:30,20.05,21.25,20.0,21.1,37221
2019-05-16 00:00:00+05:30,20.45,21.45,20.4,20.95,10592
2019-05-17 00:00:00+05:30,21.15,21.6,20.6,21.2,7247
2019-05-20 00:00:00+05:30,20.8,21.9,20.8,21.7,41718
2019-05-21 00:00:00+05:30,21.1,21.65,20.95,21.45,8235
2019-05-22 00:00:00+05:30,21.25,21.5,20.85,20.9,4591
2019-05-23 00:00:00+05:30,21.05,21.7,21.05,21.2,14547
2019-05-24 00:00:00+05:30,21.1,21.9,21.0,21.75,14135
2019-05-27 00:00:00+05:30,21.5,22.25,21.5,22.0,11571
2019-05-28 00:00:00+05:30,21.3,22.0,21.2,21.7,2153
2019-05-29 00:00:00+05:30,21.25,21.75,21.25,21.4,2986
2019-05-30 00:00:00+05:30,21.5,22.25,21.1,21.6,20294
2019-05-31 00:00:00+05:30,21.55,22.05,20.75,20.95,37653
2019-06-03 00:00:00+05:30,21.4,21.4,20.3,20.8,13397
2019-06-04 00:00:00+05:30,20.75,20.75,20.2,20.3,24843
2019-06-06 00:00:00+05:30,20.1,20.9,19.9,20.4,20453
2019-06-07 00:00:00+05:30,20.9,21.0,19.95,20.7,7701
2019-06-10 00:00:00+05:30,20.55,20.9,19.9,20.0,10434
2019-06-11 00:00:00+05:30,20.0,20.45,19.95,20.25,2458
2019-06-12 00:00:00+05:30,20.25,20.7,20.0,20.15,5791
2019-06-13 00:00:00+05:30,20.05,20.55,19.65,20.0,21864
2019-06-14 00:00:00+05:30,20.05,20.1,19.75,20.0,32694
2019-06-17 00:00:00+05:30,19.9,19.9,18.6,19.1,18290
2019-06-18 00:00:00+05:30,19.05,22.0,18.25,18.9,56375
2019-06-19 00:00:00+05:30,19.05,19.05,16.1,17.4,139206
2019-06-20 00:00:00+05:30,16.45,18.7,16.2,17.15,14094
2019-06-21 00:00:00+05:30,16.95,17.65,16.55,17.5,16784
2019-06-24 00:00:00+05:30,17.3,18.35,16.8,17.0,22757
2019-06-25 00:00:00+05:30,17.3,18.2,17.05,18.1,10817
2019-06-26 00:00:00+05:30,17.55,20.0,17.3,18.25,11177
2019-06-27 00:00:00+05:30,18.15,18.6,17.7,18.3,40016
2019-06-28 00:00:00+05:30,18.1,19.15,18.05,19.05,30035
2019-07-01 00:00:00+05:30,18.9,19.7,18.75,19.0,4134
2019-07-02 00:00:00+05:30,19.45,19.45,18.7,18.8,1985
2019-07-03 00:00:00+05:30,18.55,18.75,18.1,18.4,4514
2019-07-04 00:00:00+05:30,18.3,19.05,18.1,18.95,13461
2019-07-05 00:00:00+05:30,19.7,19.7,18.5,19.05,11296
2019-07-08 00:00:00+05:30,18.9,18.9,18.15,18.25,3893
2019-07-09 00:00:00+05:30,18.0,18.7,18.0,18.55,3922
2019-07-10 00:00:00+05:30,18.2,18.3,17.0,17.5,61844
2019-07-11 00:00:00+05:30,18.25,18.25,17.2,17.35,10578
2019-07-12 00:00:00+05:30,18.25,18.25,17.2,17.4,5821
2019-07-15 00:00:00+05:30,16.65,17.7,16.65,17.0,25640
2019-07-16 00:00:00+05:30,17.15,17.15,16.4,16.5,53443
2019-07-17 00:00:00+05:30,16.6,17.4,16.45,16.85,40996
2019-07-18 00:00:00+05:30,16.7,17.2,16.5,16.7,21143
2019-07-19 00:00:00+05:30,16.5,17.4,16.5,16.8,9550
2019-07-22 00:00:00+05:30,16.4,16.4,15.6,16.25,13445
2019-07-23 00:00:00+05:30,17.1,17.1,16.15,16.35,9303
2019-07-24 00:00:00+05:30,16.15,16.45,16.0,16.15,8486
2019-07-25 00:00:00+05:30,16.25,16.45,16.0,16.25,4729
2019-07-26 00:00:00+05:30,15.2,17.15,15.2,16.9,11788
2019-07-29 00:00:00+05:30,16.5,16.9,16.25,16.65,15816
2019-07-30 00:00:00+05:30,16.9,17.5,16.15,16.35,18249
2019-07-31 00:00:00+05:30,16.0,17.2,16.0,16.45,12493
2019-08-01 00:00:00+05:30,16.55,16.6,15.9,16.0,3533
2019-08-02 00:00:00+05:30,15.8,16.0,15.6,15.65,8387
2019-08-05 00:00:00+05:30,15.1,16.5,13.8,15.1,79633
2019-08-06 00:00:00+05:30,15.65,15.75,15.05,15.15,12487
2019-08-07 00:00:00+05:30,15.25,15.5,15.05,15.15,7858
2019-08-08 00:00:00+05:30,15.15,15.9,14.9,15.0,3168
2019-08-09 00:00:00+05:30,15.0,16.5,14.8,15.75,4925
2019-08-13 00:00:00+05:30,15.7,15.7,14.05,14.5,18415
2019-08-14 00:00:00+05:30,14.6,14.95,14.35,14.55,10340
2019-08-16 00:00:00+05:30,14.35,15.1,14.25,15.0,23940
2019-08-19 00:00:00+05:30,14.95,15.05,14.3,14.45,14944
2019-08-20 00:00:00+05:30,14.25,14.6,14.0,14.05,32256
2019-08-21 00:00:00+05:30,13.3,14.0,13.3,13.85,21559
2019-08-22 00:00:00+05:30,14.0,14.0,12.95,12.95,31362
2019-08-23 00:00:00+05:30,12.7,13.5,12.65,13.1,10110
2019-08-26 00:00:00+05:30,13.35,14.45,13.3,13.8,6006
2019-08-27 00:00:00+05:30,13.85,14.6,13.7,13.8,16928
2019-08-28 00:00:00+05:30,13.8,14.4,13.8,14.0,6692
2019-08-29 00:00:00+05:30,13.5,14.0,13.4,13.75,4545
2019-08-30 00:00:00+05:30,13.7,14.45,13.65,13.9,29368
2019-09-03 00:00:00+05:30,14.05,14.75,13.95,14.5,6134
2019-09-04 00:00:00+05:30,14.4,14.55,13.85,14.45,3258
2019-09-05 00:00:00+05:30,14.15,15.0,14.15,14.55,3768
2019-09-06 00:00:00+05:30,14.3,15.95,14.3,15.55,8806
2019-09-09 00:00:00+05:30,15.55,16.95,15.55,16.55,16756
2019-09-11 00:00:00+05:30,17.35,19.85,17.35,18.95,213199
2019-09-12 00:00:00+05:30,18.95,21.45,17.65,18.8,131213
2019-09-13 00:00:00+05:30,18.5,19.25,17.5,18.0,30442
2019-09-16 00:00:00+05:30,17.9,18.5,17.15,18.05,9513
2019-09-17 00:00:00+05:30,18.25,18.35,17.4,17.6,9983
2019-09-18 00:00:00+05:30,17.5,18.85,17.25,18.0,13417
2019-09-19 00:00:00+05:30,18.45,18.9,17.1,18.0,29932
2019-09-20 00:00:00+05:30,17.95,18.95,17.2,18.1,27634
2019-09-23 00:00:00+05:30,18.1,18.6,17.6,17.7,16775
2019-09-24 00:00:00+05:30,17.75,18.05,17.3,17.55,5927
2019-09-25 00:00:00+05:30,17.95,17.95,17.15,17.35,16192
2019-09-26 00:00:00+05:30,17.75,20.25,17.15,19.35,184115
2019-09-27 00:00:00+05:30,19.35,20.2,18.0,18.4,336663
2019-09-30 00:00:00+05:30,18.2,18.75,16.5,16.9,103438
2019-10-01 00:00:00+05:30,17.05,17.45,15.65,16.4,42984
2019-10-03 00:00:00+05:30,15.4,16.25,15.4,15.65,53604
2019-10-04 00:00:00+05:30,15.65,16.0,15.2,15.35,14129
2019-10-07 00:00:00+05:30,15.3,15.75,14.85,15.3,33072
2019-10-09 00:00:00+05:30,15.4,15.4,14.7,14.85,12530
2019-10-10 00:00:00+05:30,14.2,15.1,14.2,14.35,19742
2019-10-11 00:00:00+05:30,14.35,15.05,14.25,14.65,5587
2019-10-14 00:00:00+05:30,14.95,15.2,14.2,14.45,8241
2019-10-15 00:00:00+05:30,14.85,16.8,14.5,15.8,24916
2019-10-16 00:00:00+05:30,15.45,17.45,15.45,17.2,49055
2019-10-17 00:00:00+05:30,17.0,17.2,15.75,17.0,11615
2019-10-18 00:00:00+05:30,16.9,17.4,16.25,16.95,3958
2019-10-22 00:00:00+05:30,16.9,17.0,16.2,16.8,212836
2019-10-23 00:00:00+05:30,16.75,17.05,16.4,16.85,8983
2019-10-24 00:00:00+05:30,16.65,17.0,16.45,17.0,1676
2019-10-25 00:00:00+05:30,16.95,16.95,15.8,16.3,4102
2019-10-27 00:00:00+05:30,16.75,17.3,15.9,17.1,2829
2019-10-29 00:00:00+05:30,16.9,17.0,16.15,16.35,9891
2019-10-30 00:00:00+05:30,16.2,16.6,15.5,15.6,12215
2019-10-31 00:00:00+05:30,16.45,17.95,15.5,16.4,115137
2019-11-01 00:00:00+05:30,16.1,17.6,15.8,16.1,20003
2019-11-04 00:00:00+05:30,16.05,16.8,15.1,15.55,29286
2019-11-05 00:00:00+05:30,15.8,16.0,15.3,15.85,18126
2019-11-06 00:00:00+05:30,15.65,16.25,15.5,15.5,21258
2019-11-07 00:00:00+05:30,15.45,15.95,15.45,15.65,13884
2019-11-08 00:00:00+05:30,15.85,15.85,15.2,15.5,2864
2019-11-11 00:00:00+05:30,15.65,15.75,15.15,15.35,3997
2019-11-13 00:00:00+05:30,15.65,15.65,15.05,15.1,2326
2019-11-14 00:00:00+05:30,14.95,15.65,14.8,15.0,14781
2019-11-15 00:00:00+05:30,15.2,15.2,14.95,15.05,4286
2019-11-18 00:00:00+05:30,15.0,15.05,14.55,14.7,6621
2019-11-19 00:00:00+05:30,14.8,15.1,14.55,14.8,2131
2019-11-20 00:00:00+05:30,14.8,15.0,14.3,14.9,5895
2019-11-21 00:00:00+05:30,14.9,14.9,14.55,14.65,1634
2019-11-22 00:00:00+05:30,14.65,14.9,14.0,14.2,13705
2019-11-25 00:00:00+05:30,13.95,14.8,13.95,14.25,10349
2019-11-26 00:00:00+05:30,14.25,14.7,14.25,14.4,5554
2019-11-27 00:00:00+05:30,14.8,14.8,14.15,14.2,19786
2019-11-28 00:00:00+05:30,14.3,14.65,14.25,14.3,10689
2019-11-29 00:00:00+05:30,14.5,14.85,14.15,14.3,15579
2019-12-02 00:00:00+05:30,14.25,15.25,14.1,14.4,12357
2019-12-03 00:00:00+05:30,14.5,14.5,14.05,14.1,4456
2019-12-04 00:00:00+05:30,14.1,14.45,14.0,14.25,7613
2019-12-05 00:00:00+05:30,14.25,14.4,14.1,14.2,1818
2019-12-06 00:00:00+05:30,14.15,14.65,13.9,13.95,69570
2019-12-09 00:00:00+05:30,14.2,14.4,13.85,13.95,10732
2019-12-10 00:00:00+05:30,13.8,14.1,13.45,13.5,7500
2019-12-11 00:00:00+05:30,13.35,13.4,13.1,13.15,8211
2019-12-12 00:00:00+05:30,13.5,13.75,13.2,13.3,10442
2019-12-13 00:00:00+05:30,13.95,13.95,13.25,13.45,7767
2019-12-16 00:00:00+05:30,13.35,13.65,13.15,13.4,7799
2019-12-17 00:00:00+05:30,13.6,15.1,13.6,14.2,112607
2019-12-18 00:00:00+05:30,14.9,14.9,13.55,14.0,19737
2019-12-19 00:00:00+05:30,13.95,14.25,13.55,14.0,20296
2019-12-20 00:00:00+05:30,14.0,14.45,13.6,13.65,6852
2019-12-23 00:00:00+05:30,14.5,14.5,13.3,13.6,13977
2019-12-24 00:00:00+05:30,14.0,14.8,12.65,13.2,109536
2019-12-26 00:00:00+05:30,13.15,13.2,12.9,13.15,56528
2019-12-27 00:00:00+05:30,13.1,14.35,13.05,13.95,98371
2019-12-30 00:00:00+05:30,14.1,14.2,13.35,13.85,11641
2019-12-31 00:00:00+05:30,13.8,14.6,13.7,14.35,5309
2020-01-01 00:00:00+05:30,14.1,14.6,13.6,13.8,15632
2020-01-02 00:00:00+05:30,14.0,15.4,14.0,14.95,27044
2020-01-03 00:00:00+05:30,14.95,14.95,14.45,14.7,12963
2020-01-06 00:00:00+05:30,14.7,14.7,14.3,14.6,11904
2020-01-07 00:00:00+05:30,14.7,14.8,14.5,14.55,10032
2020-01-08 00:00:00+05:30,14.55,15.3,14.1,14.9,5840
2020-01-09 00:00:00+05:30,15.25,15.25,14.4,14.5,12597
2020-01-10 00:00:00+05:30,14.4,15.6,14.4,14.7,26660
2020-01-13 00:00:00+05:30,14.6,15.5,14.6,14.75,13348
2020-01-14 00:00:00+05:30,14.8,15.65,14.75,15.2,16441
2020-01-15 00:00:00+05:30,15.0,16.4,15.0,15.3,45348
2020-01-16 00:00:00+05:30,15.25,15.85,15.15,15.35,13642
2020-01-17 00:00:00+05:30,15.3,17.2,15.3,16.3,71988
2020-01-20 00:00:00+05:30,16.3,16.35,15.35,15.55,20107
2020-01-21 00:00:00+05:30,15.35,15.95,15.3,15.8,12285
2020-01-22 00:00:00+05:30,16.35,16.35,15.6,15.85,24196
2020-01-23 00:00:00+05:30,15.8,16.05,15.45,15.55,14890
2020-01-24 00:00:00+05:30,15.3,16.2,15.25,16.0,35103
2020-01-27 00:00:00+05:30,15.9,15.9,15.35,15.45,10485
2020-01-28 00:00:00+05:30,15.45,15.6,15.0,15.5,17341
2020-01-29 00:00:00+05:30,15.1,15.9,14.7,14.95,24578
2020-01-30 00:00:00+05:30,14.85,15.5,14.3,14.55,23838
2020-01-31 00:00:00+05:30,14.55,14.9,14.1,14.35,21723
2020-02-01 00:00:00+05:30,14.8,14.8,13.5,13.75,18577
2020-02-03 00:00:00+05:30,13.65,14.9,13.3,13.6,6333
2020-02-04 00:00:00+05:30,13.55,14.9,13.55,14.65,15619
2020-02-05 00:00:00+05:30,14.9,14.9,14.1,14.45,5407
2020-02-06 00:00:00+05:30,14.35,15.25,14.35,14.65,14696
2020-02-07 00:00:00+05:30,14.55,14.95,14.5,14.55,4624
2020-02-10 00:00:00+05:30,14.45,15.85,14.45,14.5,4844
2020-02-11 00:00:00+05:30,14.45,14.95,14.0,14.15,5589
2020-02-12 00:00:00+05:30,14.2,14.4,13.55,13.65,14868
2020-02-13 00:00:00+05:30,13.45,14.25,13.45,13.65,9104
2020-02-14 00:00:00+05:30,13.7,14.25,13.25,13.45,24586
2020-02-17 00:00:00+05:30,13.55,14.0,13.5,13.6,4523
2020-02-18 00:00:00+05:30,14.0,14.0,13.3,13.75,20207
2020-02-19 00:00:00+05:30,13.4,14.25,13.35,13.9,19889
2020-02-20 00:00:00+05:30,14.3,15.5,14.3,14.45,11466
2020-02-24 00:00:00+05:30,14.1,14.8,13.6,14.0,6243
2020-02-25 00:00:00+05:30,13.95,14.2,13.3,13.4,7463
2020-02-26 00:00:00+05:30,13.3,14.25,13.3,13.95,6935
2020-02-27 00:00:00+05:30,13.9,14.8,13.3,14.25,4571
2020-02-28 00:00:00+05:30,14.0,14.05,12.9,13.65,6376
2020-03-02 00:00:00+05:30,13.5,13.7,12.3,12.7,26623
2020-03-03 00:00:00+05:30,12.8,13.25,12.55,12.7,15022
2020-03-04 00:00:00+05:30,12.1,13.25,12.1,12.5,6233
2020-03-05 00:00:00+05:30,12.5,13.0,12.45,12.55,7652
2020-03-06 00:00:00+05:30,12.5,13.2,11.75,13.05,42733
2020-03-09 00:00:00+05:30,13.05,13.05,12.25,12.7,17448
2020-03-11 00:00:00+05:30,12.2,12.95,12.1,12.75,57215
2020-03-12 00:00:00+05:30,12.15,13.5,11.5,12.1,75237
2020-03-13 00:00:00+05:30,10.65,13.9,10.0,11.55,41536
2020-03-16 00:00:00+05:30,12.3,12.85,10.55,12.05,34243
2020-03-17 00:00:00+05:30,10.8,12.45,10.8,11.5,11525
2020-03-18 00:00:00+05:30,11.55,11.65,11.0,11.1,17021
2020-03-19 00:00:00+05:30,10.95,12.0,10.3,11.9,17788
2020-03-20 00:00:00+05:30,12.05,12.8,11.4,12.2,7990
2020-03-23 00:00:00+05:30,11.7,11.7,9.8,10.25,44830
2020-03-24 00:00:00+05:30,10.2,11.35,10.0,10.2,32196
2020-03-25 00:00:00+05:30,10.25,10.9,9.8,10.2,5897
2020-03-26 00:00:00+05:30,10.45,11.7,10.3,11.5,11635
2020-03-27 00:00:00+05:30,11.65,11.9,10.2,11.15,17750
2020-03-30 00:00:00+05:30,10.9,10.95,10.25,10.55,8691
2020-03-31 00:00:00+05:30,10.6,11.9,10.45,11.5,11003
2020-04-01 00:00:00+05:30,11.45,11.6,11.35,11.5,5835
2020-04-03 00:00:00+05:30,11.05,11.9,10.5,10.95,35263
2020-04-07 00:00:00+05:30,11.25,12.8,11.15,12.65,27145
2020-04-08 00:00:00+05:30,12.7,15.15,12.7,14.95,70029
2020-04-09 00:00:00+05:30,16.0,16.45,13.75,14.45,97732
2020-04-13 00:00:00+05:30,15.5,15.5,13.0,13.7,52529
2020-04-15 00:00:00+05:30,13.65,13.75,13.4,13.45,15783
2020-04-16 00:00:00+05:30,13.5,13.75,12.6,13.65,28532
2020-04-17 00:00:00+05:30,13.75,14.0,13.3,13.7,11047
2020-04-20 00:00:00+05:30,13.95,14.05,13.05,13.3,17556
2020-04-21 00:00:00+05:30,13.2,13.6,12.75,12.95,19968
2020-04-22 00:00:00+05:30,12.75,12.75,12.15,12.5,26123
2020-04-23 00:00:00+05:30,12.5,13.35,12.5,13.0,21463
2020-04-24 00:00:00+05:30,12.7,13.7,12.35,12.65,25955
2020-04-27 00:00:00+05:30,12.35,13.2,12.35,12.6,23098
2020-04-28 00:00:00+05:30,12.85,13.0,12.45,12.65,32299
2020-04-29 00:00:00+05:30,12.5,12.85,12.5,12.55,4072
2020-04-30 00:00:00+05:30,12.8,12.8,12.45,12.7,13366
2020-05-04 00:00:00+05:30,12.5,12.95,12.25,12.9,17850
2020-05-05 00:00:00+05:30,12.8,12.85,12.35,12.45,7585
2020-05-06 00:00:00+05:30,12.9,12.9,12.5,12.5,7108
2020-05-07 00:00:00+05:30,12.5,13.4,12.2,12.45,20659
2020-05-08 00:00:00+05:30,12.3,12.9,11.95,12.4,43286
2020-05-11 00:00:00+05:30,12.35,12.8,12.05,12.45,9810
2020-05-12 00:00:00+05:30,12.0,12.4,11.8,12.2,19501
2020-05-13 00:00:00+05:30,12.65,12.65,12.1,12.15,46418
2020-05-14 00:00:00+05:30,12.0,12.4,12.0,12.15,22547
2020-05-15 00:00:00+05:30,12.6,12.6,11.7,12.0,45529
2020-05-18 00:00:00+05:30,11.9,12.25,11.6,12.05,16854
2020-05-19 00:00:00+05:30,12.0,12.2,11.6,11.65,5458
2020-05-20 00:00:00+05:30,11.6,12.1,11.0,11.7,17520
2020-05-21 00:00:00+05:30,11.7,12.0,11.6,11.95,9092
2020-05-22 00:00:00+05:30,11.9,12.4,11.4,11.9,11860
2020-05-26 00:00:00+05:30,12.4,12.4,11.65,12.15,8731
2020-05-27 00:00:00+05:30,12.2,12.35,11.7,12.35,4346
2020-05-28 00:00:00+05:30,12.65,12.65,11.75,11.9,25496
2020-05-29 00:00:00+05:30,12.15,12.65,10.35,11.65,86652
2020-06-01 00:00:00+05:30,11.3,12.25,11.3,12.1,32996
2020-06-02 00:00:00+05:30,12.0,12.5,11.85,12.1,10496
2020-06-03 00:00:00+05:30,12.2,12.5,11.75,11.8,67456
2020-06-04 00:00:00+05:30,11.8,12.0,11.75,11.95,16244
2020-06-05 00:00:00+05:30,11.9,12.3,11.85,12.25,22587
2020-06-08 00:00:00+05:30,12.25,12.8,11.8,12.0,54257
2020-06-09 00:00:00+05:30,12.1,12.5,11.9,12.0,32751
2020-06-10 00:00:00+05:30,11.7,12.6,11.7,11.9,38093
2020-06-11 00:00:00+05:30,12.0,12.3,11.85,12.05,27301
2020-06-12 00:00:00+05:30,11.95,12.2,11.65,12.1,14103
2020-06-15 00:00:00+05:30,12.5,12.5,11.85,12.15,11819
2020-06-16 00:00:00+05:30,12.0,12.35,11.85,12.0,37117
2020-06-17 00:00:00+05:30,12.0,12.25,11.75,12.1,24616
2020-06-18 00:00:00+05:30,12.3,12.75,11.75,12.65,84793
2020-06-19 00:00:00+05:30,12.75,14.85,12.6,14.0,187172
2020-06-22 00:00:00+05:30,14.15,15.25,13.9,14.25,106210
2020-06-23 00:00:00+05:30,14.3,15.2,14.05,14.65,65998
2020-06-24 00:00:00+05:30,14.65,16.45,14.4,15.9,287964
2020-06-25 00:00:00+05:30,15.8,16.7,15.2,15.45,186645
2020-06-26 00:00:00+05:30,15.4,16.35,14.8,14.95,76359
2020-06-29 00:00:00+05:30,15.0,16.4,14.55,16.15,143175
2020-06-30 00:00:00+05:30,16.8,17.5,15.7,16.1,343219
2020-07-01 00:00:00+05:30,16.1,16.75,15.3,16.0,80617
2020-07-02 00:00:00+05:30,16.0,16.8,16.0,16.15,90335
2020-07-03 00:00:00+05:30,16.15,16.8,15.4,15.5,73683
2020-07-06 00:00:00+05:30,15.5,16.0,15.25,15.6,73367
2020-07-07 00:00:00+05:30,15.95,15.95,14.85,15.4,70256
2020-07-08 00:00:00+05:30,15.4,15.85,14.9,15.1,619056
2020-07-09 00:00:00+05:30,15.75,16.2,15.05,15.2,89796
2020-07-10 00:00:00+05:30,15.25,15.6,14.55,14.95,75112
2020-07-13 00:00:00+05:30,15.45,15.45,15.0,15.05,8842
2020-07-14 00:00:00+05:30,15.3,15.3,14.65,14.8,11853
2020-07-15 00:00:00+05:30,15.25,15.4,14.6,14.85,43733
2020-07-16 00:00:00+05:30,14.85,15.1,13.8,14.2,89273
2020-07-17 00:00:00+05:30,14.45,14.7,14.2,14.35,8625
2020-07-20 00:00:00+05:30,14.6,14.9,14.5,14.55,12397
2020-07-21 00:00:00+05:30,14.35,15.1,14.2,14.25,39987
2020-07-22 00:00:00+05:30,14.85,14.85,14.15,14.45,34501
2020-07-23 00:00:00+05:30,14.45,17.3,14.35,17.25,656021
2020-07-24 00:00:00+05:30,16.75,16.85,15.65,16.1,379338
2020-07-27 00:00:00+05:30,16.4,16.9,15.85,16.1,100669
2020-07-28 00:00:00+05:30,16.65,16.65,15.8,15.9,36970
2020-07-29 00:00:00+05:30,15.8,17.3,15.5,16.45,430685
2020-07-30 00:00:00+05:30,16.95,17.0,15.7,16.0,141498
2020-07-31 00:00:00+05:30,16.25,16.95,16.0,16.6,114456
2020-08-03 00:00:00+05:30,16.6,16.6,15.6,16.0,85992
2020-08-04 00:00:00+05:30,15.95,16.7,15.85,16.15,40458
2020-08-05 00:00:00+05:30,16.25,16.55,16.05,16.15,43094
2020-08-06 00:00:00+05:30,16.0,16.55,16.0,16.15,32587
2020-08-07 00:00:00+05:30,16.15,16.25,15.85,16.1,20262
2020-08-10 00:00:00+05:30,16.5,16.5,15.75,15.9,54891
2020-08-11 00:00:00+05:30,16.1,16.1,15.6,15.75,41785
2020-08-12 00:00:00+05:30,15.75,16.0,15.65,15.9,54414
2020-08-13 00:00:00+05:30,16.0,16.1,15.65,15.75,44439
2020-08-14 00:00:00+05:30,15.95,16.95,15.75,15.9,256601
2020-08-17 00:00:00+05:30,15.9,16.25,15.5,15.85,76805
2020-08-18 00:00:00+05:30,15.9,16.3,15.6,15.9,78555
2020-08-19 00:00:00+05:30,15.9,16.3,15.75,15.85,39484
2020-08-20 00:00:00+05:30,15.9,15.9,15.5,15.55,58426
2020-08-21 00:00:00+05:30,15.8,16.2,15.55,15.6,44847
2020-08-24 00:00:00+05:30,15.5,15.9,15.05,15.4,91831
2020-08-25 00:00:00+05:30,15.7,15.7,15.15,15.2,49534
2020-08-26 00:00:00+05:30,15.45,15.5,14.8,15.25,92667
2020-08-27 00:00:00+05:30,15.5,15.5,15.1,15.2,21923
2020-08-28 00:00:00+05:30,15.65,15.65,15.15,15.2,62014
2020-08-31 00:00:00+05:30,15.45,15.45,14.2,14.45,89251
2020-09-01 00:00:00+05:30,14.0,15.4,13.75,14.65,51471
2020-09-02 00:00:00+05:30,15.4,15.4,14.1,14.45,25442
2020-09-03 00:00:00+05:30,14.75,14.75,14.1,14.25,21715
2020-09-04 00:00:00+05:30,14.0,14.9,13.75,13.9,40260
2020-09-07 00:00:00+05:30,13.85,14.15,13.75,13.9,10486
2020-09-08 00:00:00+05:30,14.0,14.5,13.7,14.0,40774
2020-09-09 00:00:00+05:30,13.85,14.05,13.3,13.95,15592
2020-09-10 00:00:00+05:30,13.85,14.35,13.7,14.1,7136
2020-09-11 00:00:00+05:30,14.3,14.3,13.85,13.95,15990
2020-09-14 00:00:00+05:30,13.95,14.25,13.8,13.85,20111
2020-09-15 00:00:00+05:30,13.85,13.95,13.2,13.45,36804
2020-09-16 00:00:00+05:30,13.75,15.95,13.55,14.75,447286
2020-09-17 00:00:00+05:30,15.2,15.2,14.0,14.3,79276
2020-09-18 00:00:00+05:30,14.25,15.15,14.1,14.3,51298
2020-09-21 00:00:00+05:30,14.15,15.2,13.8,14.1,52266
2020-09-22 00:00:00+05:30,13.95,14.15,13.6,13.95,50193
2020-09-23 00:00:00+05:30,13.65,14.45,13.65,13.85,25868
2020-09-24 00:00:00+05:30,14.65,14.65,13.0,13.55,57830
2020-09-25 00:00:00+05:30,13.75,14.4,13.55,13.95,11431
2020-09-28 00:00:00+05:30,14.7,14.7,13.75,13.8,10411
2020-09-29 00:00:00+05:30,14.3,14.35,13.55,13.7,22453
2020-09-30 00:00:00+05:30,13.75,13.85,13.55,13.6,26867
2020-10-01 00:00:00+05:30,13.85,14.0,13.0,13.2,71322
2020-10-05 00:00:00+05:30,13.7,13.7,13.2,13.25,17103
2020-10-06 00:00:00+05:30,13.5,13.7,13.2,13.5,27013
2020-10-07 00:00:00+05:30,13.5,13.75,13.2,13.3,9635
2020-10-08 00:00:00+05:30,13.45,14.0,13.1,13.3,91611
2020-10-09 00:00:00+05:30,13.35,13.6,13.25,13.4,4464
2020-10-12 00:00:00+05:30,13.3,13.35,13.2,13.25,7832
2020-10-13 00:00:00+05:30,13.25,13.45,13.1,13.2,5120
2020-10-14 00:00:00+05:30,13.05,13.05,12.35,12.75,30156
2020-10-15 00:00:00+05:30,13.45,13.45,12.75,12.85,17277
2020-10-16 00:00:00+05:30,13.25,13.25,12.55,12.9,9558
2020-10-19 00:00:00+05:30,12.85,13.45,12.7,12.85,6722
2020-10-20 00:00:00+05:30,13.45,13.5,12.9,13.0,8793
2020-10-21 00:00:00+05:30,12.95,13.3,12.65,12.95,22032
2020-10-22 00:00:00+05:30,13.05,13.25,12.7,12.8,16643
2020-10-23 00:00:00+05:30,13.0,13.15,12.9,12.9,14122
2020-10-26 00:00:00+05:30,13.1,13.3,12.85,13.0,17681
2020-10-27 00:00:00+05:30,12.9,13.2,12.6,12.7,7123
2020-10-28 00:00:00+05:30,12.7,12.9,12.5,12.7,16917
2020-10-29 00:00:00+05:30,12.6,12.85,12.5,12.6,6636
2020-10-30 00:00:00+05:30,12.6,12.95,12.4,12.65,4283
2020-11-02 00:00:00+05:30,12.75,12.8,12.4,12.6,39026
2020-11-03 00:00:00+05:30,12.55,12.8,12.4,12.4,30772
2020-11-04 00:00:00+05:30,12.45,12.8,12.25,12.4,21037
2020-11-05 00:00:00+05:30,12.4,12.7,12.4,12.65,8798
2020-11-06 00:00:00+05:30,12.95,13.1,12.5,12.7,23496
2020-11-09 00:00:00+05:30,12.8,12.8,12.2,12.3,91644
2020-11-10 00:00:00+05:30,12.25,12.6,12.15,12.5,43198
2020-11-11 00:00:00+05:30,12.85,12.85,12.3,12.5,4462
2020-11-12 00:00:00+05:30,12.4,12.75,12.4,12.5,11972
2020-11-13 00:00:00+05:30,12.65,12.8,12.5,12.6,17427
2020-11-14 00:00:00+05:30,13.0,13.0,12.35,12.6,4818
2020-11-17 00:00:00+05:30,12.55,12.75,12.4,12.55,33284
2020-11-18 00:00:00+05:30,12.55,13.05,12.5,12.65,56285
2020-11-19 00:00:00+05:30,12.65,13.8,12.4,12.8,136391
2020-11-20 00:00:00+05:30,13.3,13.8,13.05,13.55,141187
2020-11-23 00:00:00+05:30,13.4,14.05,13.1,13.7,61063
2020-11-24 00:00:00+05:30,13.5,13.9,13.1,13.3,26757
2020-11-25 00:00:00+05:30,13.35,13.8,13.15,13.2,24284
2020-11-26 00:00:00+05:30,13.6,13.6,13.05,13.2,13037
2020-11-27 00:00:00+05:30,13.1,13.65,13.05,13.35,44715
2020-12-01 00:00:00+05:30,13.15,15.2,13.15,14.25,182281
2020-12-02 00:00:00+05:30,14.8,15.3,14.15,14.35,82176
2020-12-03 00:00:00+05:30,14.4,15.1,14.4,14.65,87649
2020-12-04 00:00:00+05:30,14.85,14.9,13.95,14.05,70341
2020-12-07 00:00:00+05:30,14.8,15.2,14.15,14.75,91328
2020-12-08 00:00:00+05:30,14.9,15.0,14.2,14.7,116430
2020-12-09 00:00:00+05:30,14.6,15.0,14.6,14.8,52920
2020-12-10 00:00:00+05:30,14.55,14.7,14.0,14.25,46625
2020-12-11 00:00:00+05:30,14.35,14.8,14.25,14.45,56254
2020-12-14 00:00:00+05:30,14.85,14.85,14.2,14.5,59126
2020-12-15 00:00:00+05:30,14.45,14.7,14.3,14.35,29348
2020-12-16 00:00:00+05:30,14.7,14.7,14.35,14.5,24124
2020-12-17 00:00:00+05:30,14.7,16.95,14.35,16.0,567030
2020-12-18 00:00:00+05:30,16.2,16.2,15.0,15.65,171607
2020-12-21 00:00:00+05:30,15.95,16.5,15.05,15.25,201681
2020-12-22 00:00:00+05:30,14.8,15.4,14.1,15.25,97908
2020-12-23 00:00:00+05:30,15.05,15.55,15.0,15.35,46966
2020-12-24 00:00:00+05:30,15.3,16.5,15.05,15.65,246475
2020-12-28 00:00:00+05:30,15.5,16.05,15.25,15.6,130099
2020-12-29 00:00:00+05:30,15.6,15.9,15.0,15.2,80068
2020-12-30 00:00:00+05:30,15.4,15.9,15.2,15.35,61674
2020-12-31 00:00:00+05:30,15.35,17.25,15.35,16.3,315306
2021-01-01 00:00:00+05:30,16.75,16.75,16.1,16.2,93943
2021-01-04 00:00:00+05:30,16.7,16.7,16.05,16.2,115944
2021-01-05 00:00:00+05:30,16.15,16.35,15.65,15.95,104986
2021-01-06 00:00:00+05:30,15.8,16.1,15.4,15.55,94116
2021-01-07 00:00:00+05:30,15.9,16.1,15.5,15.75,96367
2021-01-08 00:00:00+05:30,15.75,16.3,15.5,15.6,138530
2021-01-11 00:00:00+05:30,15.5,15.7,14.8,14.9,111669
2021-01-12 00:00:00+05:30,15.2,15.2,14.8,14.9,71318
2021-01-13 00:00:00+05:30,15.4,15.4,14.2,14.7,121219
2021-01-14 00:00:00+05:30,14.7,15.15,14.7,15.1,63546
2021-01-15 00:00:00+05:30,15.15,16.7,14.8,15.7,480270
2021-01-18 00:00:00+05:30,16.0,16.1,15.1,15.35,53371
2021-01-19 00:00:00+05:30,15.25,15.6,15.15,15.25,60774
2021-01-20 00:00:00+05:30,15.6,16.5,15.6,15.8,411732
2021-01-21 00:00:00+05:30,15.95,16.0,15.2,15.3,63320
2021-01-22 00:00:00+05:30,15.2,15.5,14.5,14.65,144244
2021-01-25 00:00:00+05:30,14.75,14.95,14.5,14.8,58550
2021-01-27 00:00:00+05:30,14.8,14.9,14.65,14.7,22300
2021-01-28 00:00:00+05:30,14.5,14.8,14.4,14.55,22562
2021-01-29 00:00:00+05:30,14.8,15.1,14.65,14.75,21999
2021-02-01 00:00:00+05:30,15.0,15.0,14.5,14.55,39939
2021-02-02 00:00:00+05:30,14.8,14.9,14.5,14.7,59454
2021-02-03 00:00:00+05:30,14.85,14.85,14.5,14.55,30519
2021-02-04 00:00:00+05:30,14.7,15.45,14.5,15.1,100591
2021-02-05 00:00:00+05:30,15.1,15.3,14.65,14.75,61889
2021-02-08 00:00:00+05:30,14.45,15.0,14.45,14.65,28119
2021-02-09 00:00:00+05:30,14.6,14.8,14.5,14.55,22231
2021-02-10 00:00:00+05:30,14.45,14.7,14.3,14.45,50122
2021-02-11 00:00:00+05:30,14.65,14.75,14.45,14.55,32464
2021-02-12 00:00:00+05:30,14.5,14.7,14.3,14.35,32239
2021-02-15 00:00:00+05:30,14.5,14.5,14.3,14.3,26228
2021-02-16 00:00:00+05:30,14.3,14.55,14.15,14.45,29599
2021-02-17 00:00:00+05:30,14.7,14.7,14.25,14.35,26261
2021-02-18 00:00:00+05:30,14.35,14.5,14.1,14.2,97704
2021-02-19 00:00:00+05:30,14.2,14.75,14.1,14.2,80112
2021-02-22 00:00:00+05:30,14.5,14.5,13.95,14.0,19307
2021-02-23 00:00:00+05:30,14.05,14.2,13.9,13.95,16486
2021-02-24 00:00:00+05:30,14.0,15.4,14.0,14.7,60359
2021-02-25 00:00:00+05:30,15.15,15.15,14.35,14.5,37482
2021-02-26 00:00:00+05:30,14.4,14.65,14.2,14.45,22206
2021-03-01 00:00:00+05:30,14.6,14.65,14.3,14.55,20399
2021-03-02 00:00:00+05:30,14.65,15.65,14.2,15.25,386633
2021-03-03 00:00:00+05:30,15.45,18.3,15.3,16.55,1214317
2021-03-04 00:00:00+05:30,16.45,16.45,15.8,15.95,138633
2021-03-05 00:00:00+05:30,16.3,17.3,15.8,16.85,536112
2021-03-08 00:00:00+05:30,17.4,17.5,16.85,17.0,189653
2021-03-09 00:00:00+05:30,17.25,20.4,16.9,18.65,2191211
2021-03-10 00:00:00+05:30,18.6,19.55,17.65,18.15,444483
2021-03-12 00:00:00+05:30,18.8,19.0,16.85,17.2,259999
2021-03-15 00:00:00+05:30,17.5,17.75,16.45,16.95,179207
2021-03-16 00:00:00+05:30,17.3,17.75,16.5,16.75,190648
2021-03-17 00:00:00+05:30,16.75,17.0,16.3,16.35,77807
2021-03-18 00:00:00+05:30,16.45,16.7,15.55,15.95,89227
2021-03-19 00:00:00+05:30,15.25,16.5,15.1,16.05,67633
2021-03-22 00:00:00+05:30,16.05,16.05,15.55,15.8,42246
2021-03-23 00:00:00+05:30,16.3,16.9,15.75,15.95,58402
2021-03-24 00:00:00+05:30,15.95,16.2,15.1,15.3,60850
2021-03-25 00:00:00+05:30,15.3,18.0,15.05,16.05,329795
2021-03-26 00:00:00+05:30,16.2,16.75,15.45,15.95,71544
2021-03-30 00:00:00+05:30,15.95,17.15,15.95,16.9,84866
2021-03-31 00:00:00+05:30,16.9,17.35,16.45,16.65,38728
2021-04-01 00:00:00+05:30,16.65,17.3,16.55,16.8,40181
2021-04-05 00:00:00+05:30,16.95,16.95,15.65,16.2,55998
2021-04-06 00:00:00+05:30,16.05,16.5,15.95,16.0,19961
2021-04-07 00:00:00+05:30,16.05,16.5,15.85,15.9,52415
2021-04-08 00:00:00+05:30,15.95,16.4,15.8,15.9,38100
2021-04-09 00:00:00+05:30,15.8,16.0,15.3,15.55,38733
2021-04-12 00:00:00+05:30,15.4,15.5,14.95,15.05,22291
2021-04-13 00:00:00+05:30,14.7,15.3,14.7,15.05,9147
2021-04-15 00:00:00+05:30,15.05,15.25,14.7,15.1,18046
2021-04-16 00:00:00+05:30,14.5,15.2,14.5,14.8,27869
2021-04-19 00:00:00+05:30,15.0,15.0,13.4,14.15,35709
2021-04-20 00:00:00+05:30,14.75,14.8,14.2,14.3,27952
2021-04-22 00:00:00+05:30,14.05,14.7,13.9,14.65,13143
2021-04-23 00:00:00+05:30,14.4,15.0,14.35,14.8,20434
2021-04-26 00:00:00+05:30,15.0,15.0,14.2,14.45,24882
2021-04-27 00:00:00+05:30,14.45,15.15,14.45,15.0,45483
2021-04-28 00:00:00+05:30,15.15,15.7,14.85,15.3,69101
2021-04-29 00:00:00+05:30,15.25,15.25,14.6,14.8,27097
2021-04-30 00:00:00+05:30,14.95,15.0,14.5,14.6,50391
2021-05-03 00:00:00+05:30,14.6,14.9,14.05,14.75,123538
2021-05-04 00:00:00+05:30,14.95,16.9,14.75,15.85,371444
2021-05-05 00:00:00+05:30,16.2,16.45,15.75,16.05,126650
2021-05-06 00:00:00+05:30,16.1,16.15,15.55,15.65,23711
2021-05-07 00:00:00+05:30,15.5,17.1,15.5,16.65,292774
2021-05-10 00:00:00+05:30,16.65,17.5,16.25,16.55,105895
2021-05-11 00:00:00+05:30,15.7,17.2,15.7,16.55,145793
2021-05-12 00:00:00+05:30,16.5,17.7,15.75,15.95,119349
2021-05-14 00:00:00+05:30,16.65,16.65,15.9,16.15,50514
2021-05-17 00:00:00+05:30,16.55,16.55,16.05,16.2,38260
2021-05-18 00:00:00+05:30,16.9,16.9,16.1,16.4,57873
2021-05-19 00:00:00+05:30,16.2,16.45,15.75,16.0,77659
2021-05-20 00:00:00+05:30,16.0,17.3,15.95,16.25,226472
2021-05-21 00:00:00+05:30,16.5,16.8,16.25,16.55,55262
2021-05-24 00:00:00+05:30,16.55,17.25,16.3,16.55,176966
2021-05-25 00:00:00+05:30,16.75,16.9,16.6,16.8,112700
2021-05-26 00:00:00+05:30,16.95,18.45,16.65,17.65,535100
2021-05-27 00:00:00+05:30,17.65,18.25,17.2,17.5,389462
2021-05-28 00:00:00+05:30,17.5,17.75,16.9,17.1,128007
2021-05-31 00:00:00+05:30,18.5,19.5,18.25,18.45,1462825
2021-06-01 00:00:00+05:30,18.5,18.7,17.55,17.85,202409
2021-06-02 00:00:00+05:30,17.6,19.7,17.6,18.85,415961
2021-06-03 00:00:00+05:30,19.0,19.45,18.4,18.75,193562
2021-06-04 00:00:00+05:30,18.5,19.0,18.2,18.35,193224
2021-06-07 00:00:00+05:30,18.35,18.8,18.2,18.25,128064
2021-06-08 00:00:00+05:30,18.3,18.6,18.0,18.3,134733
2021-06-09 00:00:00+05:30,18.35,19.6,18.05,18.3,852385
2021-06-10 00:00:00+05:30,18.5,19.5,18.25,18.8,285941
2021-06-11 00:00:00+05:30,19.0,20.45,18.8,19.95,1002964
2021-06-14 00:00:00+05:30,20.25,20.25,19.1,19.25,300963
2021-06-15 00:00:00+05:30,19.1,20.95,19.05,20.2,564861
2021-06-16 00:00:00+05:30,20.0,20.2,19.55,19.65,214188
2021-06-17 00:00:00+05:30,19.25,20.1,19.1,19.3,268341
2021-06-18 00:00:00+05:30,19.15,19.7,18.3,19.0,458599
2021-06-21 00:00:00+05:30,18.9,19.2,17.4,18.85,291268
2021-06-22 00:00:00+05:30,18.85,19.75,18.7,18.95,814927
2021-06-23 00:00:00+05:30,19.1,19.7,18.8,18.9,407643
2021-06-24 00:00:00+05:30,19.25,19.4,18.6,18.7,105779
2021-06-25 00:00:00+05:30,18.95,22.4,18.6,20.5,3176074
2021-06-28 00:00:00+05:30,20.7,21.2,19.75,20.0,484555
2021-06-29 00:00:00+05:30,20.05,20.25,19.6,19.7,137186
2021-06-30 00:00:00+05:30,20.15,20.7,19.75,20.55,344981
2021-07-01 00:00:00+05:30,20.75,21.15,20.1,20.2,352491
2021-07-02 00:00:00+05:30,20.45,20.7,19.8,19.9,190908
2021-07-05 00:00:00+05:30,20.1,21.65,19.6,20.75,590925
2021-07-06 00:00:00+05:30,21.15,21.8,20.4,20.6,218322
2021-07-07 00:00:00+05:30,21.1,24.7,21.1,24.7,5168423
2021-07-08 00:00:00+05:30,24.95,24.95,22.6,22.85,1403474
2021-07-09 00:00:00+05:30,22.95,23.85,22.5,23.05,596552
2021-07-12 00:00:00+05:30,23.0,23.4,22.3,22.6,272434
2021-07-13 00:00:00+05:30,22.95,23.1,21.6,21.75,403508
2021-07-14 00:00:00+05:30,21.4,22.35,21.4,21.85,198746
2021-07-15 00:00:00+05:30,21.85,22.65,20.5,20.7,427551
2021-07-16 00:00:00+05:30,21.0,21.7,20.4,20.65,263631
2021-07-19 00:00:00+05:30,20.5,21.2,19.65,20.25,330767
2021-07-20 00:00:00+05:30,20.05,20.95,18.7,20.65,415700
2021-07-22 00:00:00+05:30,21.5,21.5,20.5,21.05,222344
2021-07-23 00:00:00+05:30,21.25,21.85,20.5,20.65,209935
2021-07-26 00:00:00+05:30,20.85,20.85,19.9,20.1,138382
2021-07-27 00:00:00+05:30,19.95,23.75,19.95,22.15,1307269
2021-07-28 00:00:00+05:30,22.6,23.5,21.95,23.0,646510
2021-07-29 00:00:00+05:30,23.25,24.1,22.6,22.75,534487
2021-07-30 00:00:00+05:30,22.8,25.7,22.45,24.7,1587074
2021-08-02 00:00:00+05:30,27.7,27.7,25.15,25.5,1262204
2021-08-03 00:00:00+05:30,26.3,26.3,24.25,24.4,423356
2021-08-04 00:00:00+05:30,25.2,25.2,22.85,23.1,381797
2021-08-05 00:00:00+05:30,23.0,24.15,21.5,22.7,616425
2021-08-06 00:00:00+05:30,22.75,23.7,22.25,22.7,177806
2021-08-09 00:00:00+05:30,22.75,23.3,22.25,22.75,181037
2021-08-10 00:00:00+05:30,22.85,22.85,20.55,20.85,294104
2021-08-11 00:00:00+05:30,20.85,20.95,18.9,20.4,216845
2021-08-12 00:00:00+05:30,20.5,21.6,20.5,20.85,158650
2021-08-13 00:00:00+05:30,20.85,22.4,20.6,21.35,202228
2021-08-16 00:00:00+05:30,21.15,21.5,20.0,20.3,164804
2021-08-17 00:00:00+05:30,20.5,20.75,19.65,19.75,133763
2021-08-18 00:00:00+05:30,19.85,20.5,19.5,19.65,87096
2021-08-20 00:00:00+05:30,19.0,19.65,17.0,18.7,299624
2021-08-23 00:00:00+05:30,19.2,19.5,18.2,18.4,82664
2021-08-24 00:00:00+05:30,18.45,20.6,18.2,19.95,198229
2021-08-25 00:00:00+05:30,20.0,20.45,19.55,19.75,88871
2021-08-26 00:00:00+05:30,19.75,20.3,19.5,19.55,76759
2021-08-27 00:00:00+05:30,19.55,19.75,18.5,18.9,67972
2021-08-30 00:00:00+05:30,18.95,20.45,18.95,19.85,151819
2021-08-31 00:00:00+05:30,20.9,20.9,19.6,19.8,57586
2021-09-01 00:00:00+05:30,20.0,20.7,19.65,20.05,143487
2021-09-02 00:00:00+05:30,20.1,20.4,19.7,19.8,136599
2021-09-03 00:00:00+05:30,20.25,20.25,19.55,19.6,64911
2021-09-06 00:00:00+05:30,19.7,19.95,19.15,19.55,106101
2021-09-07 00:00:00+05:30,19.5,19.75,19.15,19.45,38300
2021-09-08 00:00:00+05:30,19.75,19.75,18.9,19.05,262661
2021-09-09 00:00:00+05:30,19.1,19.4,19.0,19.15,78472
2021-09-13 00:00:00+05:30,19.15,19.5,18.95,19.2,61637
2021-09-14 00:00:00+05:30,19.25,19.5,18.0,18.95,170845
2021-09-15 00:00:00+05:30,18.7,19.35,18.7,19.05,102356
2021-09-16 00:00:00+05:30,19.0,19.3,19.0,19.05,49833
2021-09-17 00:00:00+05:30,19.05,19.2,18.2,18.7,107715
2021-09-20 00:00:00+05:30,18.75,18.75,18.05,18.35,39854
2021-09-21 00:00:00+05:30,18.35,18.65,18.35,18.45,26516
2021-09-22 00:00:00+05:30,18.7,19.0,18.5,18.6,44778
2021-09-23 00:00:00+05:30,18.95,19.1,18.4,18.45,97203
2021-09-24 00:00:00+05:30,18.45,18.7,17.9,18.1,95554
2021-09-27 00:00:00+05:30,18.2,18.95,17.7,18.6,90833
2021-09-28 00:00:00+05:30,18.25,20.25,18.25,19.5,513656
2021-09-29 00:00:00+05:30,19.7,19.95,19.35,19.65,71978
2021-09-30 00:00:00+05:30,19.9,20.75,19.35,19.5,136561
2021-10-01 00:00:00+05:30,19.5,20.0,19.1,19.6,77590
2021-10-04 00:00:00+05:30,19.95,20.0,19.5,19.55,94400
2021-10-05 00:00:00+05:30,19.55,21.0,19.35,20.5,322861
2021-10-06 00:00:00+05:30,20.9,21.1,19.5,19.7,177481
2021-10-07 00:00:00+05:30,20.0,20.8,19.75,19.95,108049
2021-10-08 00:00:00+05:30,20.05,20.9,20.05,20.25,115810
2021-10-11 00:00:00+05:30,20.45,22.15,20.05,21.25,548547
2021-10-12 00:00:00+05:30,21.4,22.1,21.05,21.8,231018
2021-10-13 00:00:00+05:30,22.0,22.0,21.05,21.25,199576
2021-10-14 00:00:00+05:30,21.5,21.5,20.6,20.9,92669
2021-10-18 00:00:00+05:30,20.95,20.95,20.05,20.15,119692
2021-10-19 00:00:00+05:30,20.4,20.4,19.2,19.55,105026
2021-10-20 00:00:00+05:30,19.6,19.75,19.1,19.15,45803
2021-10-21 00:00:00+05:30,19.2,19.9,19.2,19.6,33961
2021-10-22 00:00:00+05:30,19.75,20.15,19.05,19.25,68983
2021-10-25 00:00:00+05:30,19.2,19.3,18.55,18.95,62716
2021-10-26 00:00:00+05:30,19.0,19.95,18.35,19.15,56061
2021-10-27 00:00:00+05:30,19.25,20.2,19.2,19.6,92349
2021-10-28 00:00:00+05:30,19.65,19.95,18.75,18.85,41408
2021-10-29 00:00:00+05:30,18.9,19.35,18.6,18.8,36786
2021-11-01 00:00:00+05:30,19.5,19.5,18.9,19.0,26357
2021-11-02 00:00:00+05:30,19.4,19.4,18.75,18.95,33371
2021-11-03 00:00:00+05:30,19.0,19.25,18.65,18.9,40436
2021-11-04 00:00:00+05:30,19.25,19.3,19.0,19.05,26384
2021-11-08 00:00:00+05:30,19.0,19.25,19.0,19.05,30504
2021-11-09 00:00:00+05:30,19.05,19.25,19.05,19.05,33049
2021-11-10 00:00:00+05:30,19.05,19.25,18.85,18.95,46245
2021-11-11 00:00:00+05:30,18.6,19.2,18.6,18.8,30119
2021-11-12 00:00:00+05:30,18.75,22.35,18.75,21.95,1546348
2021-11-15 00:00:00+05:30,21.55,21.55,19.8,20.05,424442
2021-11-16 00:00:00+05:30,20.0,20.15,19.75,19.85,102897
2021-11-17 00:00:00+05:30,19.8,21.6,19.75,20.15,412878
2021-11-18 00:00:00+05:30,20.5,20.5,19.75,19.95,44563
2021-11-22 00:00:00+05:30,19.75,20.75,18.8,19.25,170126
2021-11-23 00:00:00+05:30,19.0,19.6,18.8,19.15,89556
2021-11-24 00:00:00+05:30,19.15,19.7,18.9,19.2,85750
2021-11-25 00:00:00+05:30,19.2,19.5,19.0,19.35,28468
2021-11-26 00:00:00+05:30,18.05,19.65,18.05,19.05,109020
2021-11-29 00:00:00+05:30,19.1,19.2,18.05,18.85,67848
2021-11-30 00:00:00+05:30,18.6,19.45,18.6,18.75,39918
2021-12-01 00:00:00+05:30,18.8,19.25,18.35,18.6,47485
2021-12-02 00:00:00+05:30,18.9,18.95,18.6,18.9,46177
2021-12-03 00:00:00+05:30,19.1,19.1,18.55,18.65,62148
2021-12-06 00:00:00+05:30,18.65,19.0,18.5,18.8,61790
2021-12-07 00:00:00+05:30,18.65,19.0,18.6,18.8,57451
2021-12-08 00:00:00+05:30,18.85,21.2,18.75,20.35,500391
2021-12-09 00:00:00+05:30,20.55,21.0,20.25,20.35,113815
2021-12-10 00:00:00+05:30,20.35,20.95,20.0,20.6,83909
2021-12-13 00:00:00+05:30,21.0,21.0,19.8,20.05,45717
2021-12-14 00:00:00+05:30,20.2,22.0,19.9,21.4,577868
2021-12-15 00:00:00+05:30,21.65,21.65,20.1,20.35,125177
2021-12-16 00:00:00+05:30,20.7,20.7,20.05,20.15,54090
2021-12-17 00:00:00+05:30,20.05,20.05,18.95,19.25,127902
2021-12-20 00:00:00+05:30,18.95,18.95,17.05,17.95,282967
2021-12-21 00:00:00+05:30,18.15,18.75,17.85,18.35,65437
2021-12-22 00:00:00+05:30,18.35,19.55,18.1,18.95,90240
2021-12-23 00:00:00+05:30,19.6,19.8,18.8,19.0,61830
2021-12-24 00:00:00+05:30,19.35,19.35,17.85,18.25,188078
2021-12-27 00:00:00+05:30,18.4,18.8,18.0,18.5,97244
2021-12-28 00:00:00+05:30,18.5,19.45,18.5,19.2,91553
2021-12-29 00:00:00+05:30,19.5,20.45,18.8,19.5,260329
2021-12-30 00:00:00+05:30,19.5,21.45,19.5,20.45,968223
2021-12-31 00:00:00+05:30,20.8,20.8,20.1,20.2,104707
2022-01-03 00:00:00+05:30,20.25,21.35,20.1,20.55,198841
2022-01-04 00:00:00+05:30,21.0,22.85,20.45,21.45,1009550
2022-01-05 00:00:00+05:30,21.4,22.25,21.15,21.85,428921
2022-01-06 00:00:00+05:30,21.65,21.95,21.1,21.6,114015
2022-01-07 00:00:00+05:30,21.85,22.4,20.75,20.85,263714
2022-01-10 00:00:00+05:30,21.15,22.75,20.9,22.1,386653
2022-01-11 00:00:00+05:30,22.3,22.3,21.05,21.25,196218
2022-01-12 00:00:00+05:30,21.5,22.3,21.4,21.75,249135
2022-01-13 00:00:00+05:30,22.0,22.0,21.05,21.2,118234
2022-01-14 00:00:00+05:30,21.4,21.95,21.05,21.35,117058
2022-01-17 00:00:00+05:30,21.2,21.9,21.2,21.55,80718
2022-01-18 00:00:00+05:30,21.55,21.9,20.8,21.05,168378
2022-01-19 00:00:00+05:30,21.35,21.5,19.6,20.6,123604
2022-01-20 00:00:00+05:30,20.6,21.25,20.35,20.7,75672
2022-01-21 00:00:00+05:30,20.25,20.85,20.05,20.3,91104
2022-01-24 00:00:00+05:30,20.0,20.3,19.05,19.25,134889
2022-01-25 00:00:00+05:30,19.15,19.5,18.9,19.2,85270
2022-01-27 00:00:00+05:30,19.0,19.85,18.75,19.75,85335
2022-01-28 00:00:00+05:30,20.25,20.6,19.55,19.65,113039
2022-01-31 00:00:00+05:30,20.05,20.05,19.55,19.7,226996
2022-02-01 00:00:00+05:30,19.9,20.4,19.25,19.5,74138
2022-02-02 00:00:00+05:30,19.55,21.35,19.55,20.75,340469
2022-02-03 00:00:00+05:30,21.2,21.5,20.4,20.6,128239
2022-02-04 00:00:00+05:30,20.95,21.1,20.1,20.6,92720
2022-02-07 00:00:00+05:30,20.85,20.85,20.0,20.1,82328
2022-02-08 00:00:00+05:30,20.1,20.2,19.35,19.85,53611
2022-02-09 00:00:00+05:30,19.9,20.5,19.65,19.75,67630
2022-02-10 00:00:00+05:30,19.95,19.95,19.55,19.7,37701
2022-02-11 00:00:00+05:30,19.6,19.95,19.5,19.65,33293
2022-02-14 00:00:00+05:30,19.05,19.85,18.7,18.85,62322
2022-02-15 00:00:00+05:30,18.7,19.25,18.35,18.95,90801
2022-02-16 00:00:00+05:30,19.6,20.9,19.05,20.05,208053
2022-02-17 00:00:00+05:30,19.9,20.5,19.05,19.2,97006
2022-02-18 00:00:00+05:30,19.0,19.4,18.8,18.85,64159
2022-02-21 00:00:00+05:30,19.2,19.2,18.15,18.4,50466
2022-02-22 00:00:00+05:30,18.0,18.45,17.25,18.15,68849
2022-02-23 00:00:00+05:30,18.35,18.75,18.05,18.3,88601
2022-02-24 00:00:00+05:30,17.8,17.8,16.55,16.85,122553
2022-02-25 00:00:00+05:30,17.15,18.3,17.15,17.75,52121
2022-02-28 00:00:00+05:30,17.75,18.25,16.2,17.9,62678
2022-03-02 00:00:00+05:30,17.95,18.2,17.5,17.8,32470
2022-03-03 00:00:00+05:30,17.85,18.25,17.3,17.55,25038
2022-03-04 00:00:00+05:30,17.55,17.8,17.1,17.15,51780
2022-03-07 00:00:00+05:30,17.4,17.4,16.6,16.85,21821
2022-03-08 00:00:00+05:30,17.2,17.2,16.85,17.1,23783
2022-03-09 00:00:00+05:30,16.9,17.7,16.9,17.55,46328
2022-03-10 00:00:00+05:30,17.6,18.0,17.2,17.5,59607
2022-03-11 00:00:00+05:30,17.9,18.9,17.55,18.55,127848
2022-03-14 00:00:00+05:30,18.55,19.3,18.55,18.7,94862
2022-03-15 00:00:00+05:30,18.85,19.45,18.35,18.6,147974
2022-03-16 00:00:00+05:30,18.5,20.3,18.5,19.6,524525
2022-03-17 00:00:00+05:30,19.85,20.1,19.2,19.5,161459
2022-03-21 00:00:00+05:30,19.8,19.8,18.15,18.2,470530
2022-03-22 00:00:00+05:30,18.45,18.45,17.65,17.9,166337
2022-03-23 00:00:00+05:30,17.85,18.25,17.65,17.8,151894
2022-03-24 00:00:00+05:30,17.8,18.5,17.6,17.8,154534
2022-03-25 00:00:00+05:30,17.95,18.2,17.5,17.75,128040
2022-03-28 00:00:00+05:30,17.95,17.95,17.3,17.4,277913
2022-03-29 00:00:00+05:30,17.5,18.0,16.9,17.0,378332
2022-03-30 00:00:00+05:30,17.15,17.6,17.1,17.15,101980
2022-03-31 00:00:00+05:30,17.15,17.45,16.9,17.05,84698
2022-04-01 00:00:00+05:30,17.0,17.95,17.0,17.7,139519
2022-04-04 00:00:00+05:30,18.2,18.4,18.0,18.2,76777
2022-04-05 00:00:00+05:30,18.6,19.3,18.1,18.85,183683
2022-04-06 00:00:00+05:30,18.85,19.4,18.35,18.8,169525
2022-04-07 00:00:00+05:30,18.9,21.3,18.9,20.35,752712
2022-04-08 00:00:00+05:30,20.7,21.05,20.2,20.5,277423
2022-04-11 00:00:00+05:30,20.85,20.9,19.45,19.6,150127
2022-04-12 00:00:00+05:30,19.6,19.75,18.95,19.3,137356
2022-04-13 00:00:00+05:30,19.3,20.2,19.2,19.65,121347
2022-04-18 00:00:00+05:30,19.0,20.8,18.85,19.8,364672
2022-04-19 00:00:00+05:30,20.05,21.9,19.3,20.05,911315
2022-04-20 00:00:00+05:30,20.25,20.85,19.45,19.95,218901
2022-04-21 00:00:00+05:30,19.75,21.65,19.7,21.25,344119
2022-04-22 00:00:00+05:30,21.3,21.5,20.55,20.6,170122
2022-04-25 00:00:00+05:30,20.7,20.8,19.6,19.65,133273
2022-04-26 00:00:00+05:30,19.7,20.5,19.5,19.65,93022
2022-04-27 00:00:00+05:30,19.5,19.7,19.0,19.2,107237
2022-04-28 00:00:00+05:30,19.95,19.95,18.85,19.05,155790
2022-04-29 00:00:00+05:30,19.4,19.4,18.8,18.85,61165
2022-05-02 00:00:00+05:30,18.8,19.1,18.75,18.95,44834
2022-05-04 00:00:00+05:30,18.55,19.0,18.15,18.4,74561
2022-05-05 00:00:00+05:30,18.45,18.65,17.8,18.1,72516
2022-05-06 00:00:00+05:30,18.4,18.5,17.6,17.75,84768
2022-05-09 00:00:00+05:30,17.45,17.65,16.7,17.1,97433
2022-05-10 00:00:00+05:30,17.2,17.95,17.1,17.4,55430
2022-05-11 00:00:00+05:30,17.75,17.75,16.25,17.15,63231
2022-05-12 00:00:00+05:30,17.15,17.15,16.4,16.7,30230
2022-05-13 00:00:00+05:30,17.0,17.45,16.15,16.6,61605
2022-05-16 00:00:00+05:30,16.95,17.85,16.95,17.25,56637
2022-05-17 00:00:00+05:30,17.25,17.95,17.25,17.8,31305
2022-05-18 00:00:00+05:30,17.5,18.5,17.45,17.55,113102
2022-05-19 00:00:00+05:30,17.8,17.95,16.9,17.15,38901
2022-05-20 00:00:00+05:30,17.5,17.8,17.3,17.7,20213
2022-05-23 00:00:00+05:30,17.95,17.95,17.1,17.2,33155
2022-05-24 00:00:00+05:30,17.1,17.35,16.85,17.0,34949
2022-05-25 00:00:00+05:30,17.2,17.2,16.4,16.7,28388
2022-05-26 00:00:00+05:30,16.75,17.2,16.15,16.45,44713
2022-05-27 00:00:00+05:30,16.45,17.2,16.45,16.85,25719
2022-05-30 00:00:00+05:30,16.85,17.3,16.75,17.0,27915
2022-05-31 00:00:00+05:30,17.05,17.05,16.55,16.75,28025
2022-06-01 00:00:00+05:30,16.75,17.1,16.65,16.7,19877
2022-06-02 00:00:00+05:30,16.7,16.85,16.25,16.55,58202
2022-06-03 00:00:00+05:30,16.9,16.9,16.0,16.15,62991
2022-06-06 00:00:00+05:30,16.45,16.45,16.15,16.3,9896
2022-06-07 00:00:00+05:30,16.3,16.5,16.15,16.2,18724
2022-06-08 00:00:00+05:30,16.2,16.65,16.1,16.2,34150
2022-06-09 00:00:00+05:30,15.9,16.4,15.9,16.1,22997
2022-06-10 00:00:00+05:30,16.0,16.25,15.95,16.05,22417
2022-06-13 00:00:00+05:30,15.45,16.1,15.45,15.55,19426
2022-06-14 00:00:00+05:30,15.8,16.45,15.55,15.85,26452
2022-06-15 00:00:00+05:30,16.0,16.15,15.55,15.6,9808
2022-06-16 00:00:00+05:30,15.4,15.95,15.4,15.5,14025
2022-06-17 00:00:00+05:30,15.5,15.6,15.2,15.25,11444
2022-06-20 00:00:00+05:30,15.25,15.5,14.3,14.75,43611
2022-06-21 00:00:00+05:30,14.75,15.25,14.6,14.95,50969
2022-06-22 00:00:00+05:30,14.7,15.8,14.6,14.85,15860
2022-06-23 00:00:00+05:30,14.7,15.6,14.65,15.2,15569
2022-06-24 00:00:00+05:30,14.9,15.7,14.8,15.3,22224
2022-06-27 00:00:00+05:30,15.1,15.7,15.0,15.45,21049
2022-06-28 00:00:00+05:30,15.45,15.7,15.1,15.45,21178
2022-06-29 00:00:00+05:30,15.15,15.9,15.0,15.4,41113
2022-06-30 00:00:00+05:30,15.2,15.7,15.2,15.3,6039
2022-07-01 00:00:00+05:30,15.25,15.7,15.25,15.4,24974
2022-07-04 00:00:00+05:30,15.8,15.8,15.45,15.55,35693
2022-07-05 00:00:00+05:30,15.55,17.1,15.35,16.15,246179
2022-07-06 00:00:00+05:30,16.5,16.5,16.0,16.05,12821
2022-07-07 00:00:00+05:30,16.05,16.45,16.0,16.1,9144
2022-07-08 00:00:00+05:30,15.75,16.45,15.75,16.1,26809
2022-07-11 00:00:00+05:30,15.9,16.5,15.75,16.1,18327
2022-07-12 00:00:00+05:30,16.05,16.4,15.55,16.0,46909
2022-07-13 00:00:00+05:30,16.35,16.65,16.15,16.2,51349
2022-07-14 00:00:00+05:30,16.05,16.5,15.75,15.8,25688
2022-07-15 00:00:00+05:30,16.0,16.2,15.8,15.9,14457
2022-07-18 00:00:00+05:30,16.2,16.3,15.85,16.15,26308
2022-07-19 00:00:00+05:30,15.9,16.5,15.9,16.2,26334
2022-07-20 00:00:00+05:30,16.5,16.65,16.05,16.25,58858
2022-07-21 00:00:00+05:30,16.15,16.25,16.0,16.05,37919
2022-07-22 00:00:00+05:30,16.0,16.3,16.0,16.05,31842
2022-07-25 00:00:00+05:30,16.1,16.2,15.75,15.85,19336
2022-07-26 00:00:00+05:30,15.75,16.1,15.75,15.85,5540
2022-07-27 00:00:00+05:30,15.85,16.4,15.85,15.95,64458
2022-07-28 00:00:00+05:30,15.85,16.25,15.8,15.85,41839
2022-07-29 00:00:00+05:30,15.85,16.2,15.8,15.85,17727
2022-08-01 00:00:00+05:30,16.4,16.7,16.05,16.5,143405
2022-08-02 00:00:00+05:30,16.4,17.25,16.4,16.95,92033
2022-08-03 00:00:00+05:30,16.75,16.9,16.3,16.45,33087
2022-08-04 00:00:00+05:30,16.5,16.9,16.15,16.65,41072
2022-08-05 00:00:00+05:30,16.65,16.75,16.3,16.4,25363
2022-08-08 00:00:00+05:30,16.35,16.8,16.05,16.35,35865
2022-08-10 00:00:00+05:30,16.35,17.2,16.05,16.6,180874
2022-08-11 00:00:00+05:30,16.95,16.95,16.05,16.25,22276
2022-08-12 00:00:00+05:30,16.25,16.5,16.2,16.3,25576
2022-08-16 00:00:00+05:30,16.45,16.55,16.1,16.35,20125
2022-08-17 00:00:00+05:30,16.55,16.75,16.4,16.6,57704
2022-08-18 00:00:00+05:30,16.6,16.7,16.4,16.55,15898
2022-08-19 00:00:00+05:30,16.75,16.95,16.45,16.65,47031
2022-08-22 00:00:00+05:30,16.25,16.7,16.15,16.15,43711
2022-08-23 00:00:00+05:30,16.4,16.9,16.35,16.35,31655
2022-08-24 00:00:00+05:30,16.7,17.2,16.5,16.75,153586
2022-08-25 00:00:00+05:30,17.15,17.2,16.75,16.8,54075
2022-08-26 00:00:00+05:30,16.9,17.3,16.75,17.05,30220
2022-08-29 00:00:00+05:30,16.9,17.45,16.6,16.95,77707
2022-08-30 00:00:00+05:30,17.3,17.3,16.85,17.0,16119
2022-09-01 00:00:00+05:30,17.1,17.3,16.8,17.0,27150
2022-09-02 00:00:00+05:30,17.0,17.1,16.7,16.8,40552
2022-09-05 00:00:00+05:30,16.8,17.1,16.6,16.7,36971
2022-09-06 00:00:00+05:30,16.95,17.45,16.7,16.8,141618
2022-09-07 00:00:00+05:30,16.95,17.1,16.65,16.7,40602
2022-09-08 00:00:00+05:30,16.95,18.2,16.7,17.75,353373
2022-09-09 00:00:00+05:30,17.95,18.35,17.75,17.8,119382
2022-09-12 00:00:00+05:30,18.0,18.05,17.1,17.4,46527
2022-09-13 00:00:00+05:30,17.75,17.95,17.4,17.85,64669
2022-09-14 00:00:00+05:30,17.95,17.95,16.5,17.55,37197
2022-09-15 00:00:00+05:30,17.8,17.9,16.95,17.2,82101
2022-09-16 00:00:00+05:30,16.9,17.2,16.6,16.8,38635
2022-09-19 00:00:00+05:30,17.3,17.3,16.6,16.65,11864
2022-09-20 00:00:00+05:30,16.85,17.0,16.65,16.75,39475
2022-09-21 00:00:00+05:30,16.75,16.95,16.25,16.4,30121
2022-09-22 00:00:00+05:30,16.4,16.6,16.4,16.5,5834
2022-09-23 00:00:00+05:30,16.95,16.95,15.8,16.0,45133
2022-09-26 00:00:00+05:30,16.1,16.1,15.2,15.35,32521
2022-09-27 00:00:00+05:30,15.85,15.85,15.4,15.7,13601
2022-09-28 00:00:00+05:30,15.5,16.2,15.3,15.7,9559
2022-09-29 00:00:00+05:30,15.75,15.9,15.4,15.55,8636
2022-09-30 00:00:00+05:30,15.3,15.8,15.3,15.5,21550
2022-10-03 00:00:00+05:30,15.5,15.75,15.05,15.3,30562
2022-10-04 00:00:00+05:30,15.75,15.75,15.15,15.55,21475
2022-10-06 00:00:00+05:30,15.55,16.3,15.3,16.2,36553
2022-10-07 00:00:00+05:30,16.5,16.5,15.9,16.15,15188
2022-10-10 00:00:00+05:30,15.9,16.3,15.85,16.2,17341
2022-10-11 00:00:00+05:30,16.2,16.2,16.0,16.1,8434
2022-10-12 00:00:00+05:30,16.45,16.45,15.9,16.0,5583
2022-10-13 00:00:00+05:30,16.0,16.3,15.75,15.9,15151
2022-10-14 00:00:00+05:30,15.95,16.25,15.85,16.0,10072
2022-10-17 00:00:00+05:30,16.2,16.2,15.1,15.5,19366
2022-10-18 00:00:00+05:30,15.55,15.85,15.25,15.5,24866
2022-10-19 00:00:00+05:30,15.8,15.8,15.45,15.5,20227
2022-10-20 00:00:00+05:30,15.45,15.65,15.3,15.45,7802
2022-10-21 00:00:00+05:30,15.45,15.7,15.25,15.35,15545
2022-10-24 00:00:00+05:30,15.65,15.65,15.15,15.6,4690
2022-10-25 00:00:00+05:30,15.65,15.7,15.35,15.45,28765
2022-10-27 00:00:00+05:30,15.45,15.95,15.25,15.45,48971
2022-10-28 00:00:00+05:30,15.75,16.05,15.4,15.95,82399
2022-10-31 00:00:00+05:30,15.7,16.25,15.7,15.8,33929
2022-11-01 00:00:00+05:30,15.65,16.0,15.6,15.75,26661
2022-11-02 00:00:00+05:30,16.0,16.0,15.5,15.55,12098
2022-11-03 00:00:00+05:30,15.55,15.7,15.3,15.35,42240
2022-11-04 00:00:00+05:30,15.7,16.25,15.35,16.0,45787
2022-11-07 00:00:00+05:30,16.0,16.25,15.8,16.05,11208
2022-11-09 00:00:00+05:30,16.25,17.0,15.8,16.25,59057
2022-11-10 00:00:00+05:30,16.25,16.95,16.25,16.4,68669
2022-11-11 00:00:00+05:30,16.4,16.75,15.75,15.95,45947
2022-11-14 00:00:00+05:30,15.95,16.1,15.75,15.75,16114
2022-11-15 00:00:00+05:30,15.8,15.95,15.5,15.6,28674
2022-11-16 00:00:00+05:30,15.55,15.75,15.35,15.45,24171
2022-11-17 00:00:00+05:30,15.5,15.8,15.3,15.6,57621
2022-11-18 00:00:00+05:30,15.6,15.75,15.4,15.4,33825
2022-11-21 00:00:00+05:30,15.3,15.55,15.0,15.1,45678
2022-11-22 00:00:00+05:30,15.1,15.45,15.1,15.25,16330
2022-11-23 00:00:00+05:30,15.25,15.6,15.1,15.3,32621
2022-11-24 00:00:00+05:30,15.6,15.6,15.25,15.4,8679
2022-11-25 00:00:00+05:30,15.45,15.8,15.25,15.6,26842
2022-11-28 00:00:00+05:30,15.75,15.85,15.35,15.4,13940
2022-11-29 00:00:00+05:30,15.8,15.8,15.15,15.6,18241
2022-11-30 00:00:00+05:30,15.6,15.7,15.35,15.45,34230
2022-12-01 00:00:00+05:30,15.45,15.7,14.85,15.1,118291
2022-12-02 00:00:00+05:30,15.15,15.3,15.0,15.1,74781
2022-12-05 00:00:00+05:30,15.1,15.6,15.1,15.35,88485
2022-12-06 00:00:00+05:30,15.35,15.55,15.05,15.15,50722
2022-12-07 00:00:00+05:30,15.35,15.35,15.05,15.2,55630
2022-12-08 00:00:00+05:30,15.2,15.3,15.05,15.25,18314
2022-12-09 00:00:00+05:30,15.15,15.4,15.05,15.05,57552
2022-12-12 00:00:00+05:30,15.55,15.55,14.8,15.05,16814
2022-12-13 00:00:00+05:30,15.05,17.0,15.05,16.1,531582
2022-12-14 00:00:00+05:30,16.3,16.45,16.0,16.1,54873
2022-12-15 00:00:00+05:30,16.2,16.2,14.35,15.3,236643
2022-12-16 00:00:00+05:30,15.45,15.7,15.1,15.3,40749
2022-12-19 00:00:00+05:30,15.7,16.3,15.15,15.9,143532
2022-12-20 00:00:00+05:30,15.9,17.5,15.7,16.5,763882
2022-12-21 00:00:00+05:30,16.75,17.0,15.15,15.3,281801
2022-12-22 00:00:00+05:30,15.15,15.65,14.8,15.05,62243
2022-12-23 00:00:00+05:30,15.0,15.0,14.4,14.5,78446
2022-12-26 00:00:00+05:30,14.5,15.15,14.5,15.0,41443
2022-12-27 00:00:00+05:30,14.9,15.4,14.9,15.1,30567
2022-12-28 00:00:00+05:30,15.4,15.5,15.1,15.25,51949
2022-12-29 00:00:00+05:30,15.05,15.6,15.0,15.2,59111
2022-12-30 00:00:00+05:30,15.5,15.95,15.1,15.4,166652
2023-01-02 00:00:00+05:30,15.6,16.3,15.35,16.15,203781
2023-01-03 00:00:00+05:30,16.15,16.3,15.65,16.1,64228
2023-01-04 00:00:00+05:30,16.15,16.15,15.6,15.65,50815
2023-01-05 00:00:00+05:30,15.7,15.95,15.5,15.65,14660
2023-01-06 00:00:00+05:30,15.65,15.95,15.65,15.65,12114
2023-01-09 00:00:00+05:30,15.95,16.0,15.25,15.5,28002
2023-01-10 00:00:00+05:30,15.5,15.75,15.15,15.3,46865
2023-01-11 00:00:00+05:30,15.5,15.9,15.4,15.4,15125
2023-01-12 00:00:00+05:30,15.5,15.75,15.2,15.3,11948
2023-01-13 00:00:00+05:30,15.25,15.45,15.25,15.35,23406
2023-01-16 00:00:00+05:30,15.35,15.65,15.2,15.3,27323
2023-01-17 00:00:00+05:30,15.2,15.55,15.2,15.4,28512
2023-01-18 00:00:00+05:30,15.7,15.7,15.2,15.25,11835
2023-01-19 00:00:00+05:30,15.2,15.5,14.95,15.1,22487
2023-01-20 00:00:00+05:30,15.1,15.45,15.1,15.2,14616
2023-01-23 00:00:00+05:30,15.45,15.45,15.1,15.1,13397
2023-01-24 00:00:00+05:30,15.15,15.3,14.8,14.95,31804
2023-01-25 00:00:00+05:30,14.9,15.0,14.65,14.8,25203
2023-01-27 00:00:00+05:30,14.8,14.85,14.2,14.3,40809
2023-01-30 00:00:00+05:30,14.35,14.7,14.25,14.3,19136
2023-01-31 00:00:00+05:30,14.25,14.5,14.25,14.3,64344
2023-02-01 00:00:00+05:30,14.5,14.5,13.9,14.05,41690
2023-02-02 00:00:00+05:30,14.0,14.25,13.95,14.1,41543
2023-02-03 00:00:00+05:30,14.35,14.35,13.6,13.85,28025
2023-02-06 00:00:00+05:30,13.8,14.25,13.6,13.65,37385
2023-02-07 00:00:00+05:30,13.75,14.0,13.55,13.65,24125
2023-02-08 00:00:00+05:30,14.0,14.0,13.65,13.8,28223
2023-02-09 00:00:00+05:30,13.8,14.0,13.65,13.9,33284
2023-02-10 00:00:00+05:30,13.9,14.1,13.75,13.8,21245
2023-02-13 00:00:00+05:30,13.65,13.9,13.6,13.65,25381
2023-02-14 00:00:00+05:30,13.8,13.85,13.3,13.55,38443
2023-02-15 00:00:00+05:30,13.55,13.55,13.25,13.3,28901
2023-02-16 00:00:00+05:30,13.3,13.5,13.2,13.3,11976
2023-02-17 00:00:00+05:30,13.5,13.55,13.45,13.5,15786
2023-02-20 00:00:00+05:30,13.9,13.9,13.35,13.4,15491
2023-02-21 00:00:00+05:30,13.6,13.6,13.15,13.2,6447
2023-02-22 00:00:00+05:30,13.35,13.5,12.85,13.3,44764
2023-02-23 00:00:00+05:30,13.5,13.5,13.05,13.1,20511
2023-02-24 00:00:00+05:30,13.3,13.3,12.9,13.0,35307
2023-02-27 00:00:00+05:30,12.95,13.25,11.1,11.45,191413
2023-02-28 00:00:00+05:30,11.7,11.8,10.8,11.6,61979
2023-03-01 00:00:00+05:30,11.55,12.6,11.5,12.35,27768
2023-03-02 00:00:00+05:30,12.35,12.95,12.35,12.85,55062
2023-03-03 00:00:00+05:30,12.95,13.0,12.5,12.7,20435
2023-03-06 00:00:00+05:30,12.4,12.9,12.35,12.75,15467
2023-03-08 00:00:00+05:30,12.75,12.85,12.6,12.75,49571
2023-03-09 00:00:00+05:30,12.95,13.0,12.5,12.65,16999
2023-03-10 00:00:00+05:30,12.5,12.65,11.45,11.65,168268
2023-03-13 00:00:00+05:30,11.9,11.9,11.2,11.25,55417
2023-03-14 00:00:00+05:30,11.4,11.55,11.2,11.4,20366
2023-03-15 00:00:00+05:30,11.7,11.8,11.05,11.5,39002
2023-03-16 00:00:00+05:30,11.4,11.65,11.2,11.4,53656
2023-03-17 00:00:00+05:30,11.7,11.85,11.15,11.4,27032
2023-03-20 00:00:00+05:30,11.0,11.6,10.85,11.0,74589
2023-03-21 00:00:00+05:30,11.0,11.2,10.95,11.0,33583
2023-03-22 00:00:00+05:30,11.0,11.2,10.65,10.9,53162
2023-03-23 00:00:00+05:30,10.85,11.35,10.85,11.0,40747
2023-03-24 00:00:00+05:30,10.9,11.15,10.7,10.7,55739
2023-03-27 00:00:00+05:30,10.8,10.9,10.35,10.4,76455
2023-03-28 00:00:00+05:30,10.9,10.9,10.4,10.6,75817
2023-03-29 00:00:00+05:30,10.5,11.1,10.45,10.55,67761
2023-03-31 00:00:00+05:30,10.6,11.75,10.55,11.15,226589
2023-04-03 00:00:00+05:30,11.4,13.2,11.15,12.9,127643
2023-04-05 00:00:00+05:30,13.0,13.2,11.6,12.1,129271
2023-04-06 00:00:00+05:30,12.45,12.45,11.5,12.05,45240
2023-04-10 00:00:00+05:30,12.5,12.5,11.5,11.85,35059
2023-04-11 00:00:00+05:30,12.25,13.35,11.7,13.1,385063
2023-04-12 00:00:00+05:30,13.25,13.45,12.55,12.75,261270
2023-04-13 00:00:00+05:30,12.75,13.45,12.55,13.0,77438
2023-04-17 00:00:00+05:30,13.3,13.3,12.55,12.65,318032
2023-04-18 00:00:00+05:30,12.8,13.0,12.65,12.9,45150
2023-04-19 00:00:00+05:30,13.0,13.0,12.5,12.6,30715
2023-04-20 00:00:00+05:30,12.6,12.8,12.5,12.55,28953
2023-04-21 00:00:00+05:30,12.6,12.6,12.05,12.2,30220
2023-04-24 00:00:00+05:30,12.2,12.7,11.95,12.35,35633
2023-04-25 00:00:00+05:30,12.35,12.65,12.2,12.5,23398
2023-04-26 00:00:00+05:30,12.7,12.7,12.25,12.55,13187
2023-04-27 00:00:00+05:30,12.35,12.8,12.35,12.7,32800
2023-04-28 00:00:00+05:30,12.75,12.85,12.55,12.75,38587
2023-05-02 00:00:00+05:30,12.75,12.9,12.6,12.7,19301
2023-05-03 00:00:00+05:30,12.7,12.95,12.35,12.85,47637
2023-05-04 00:00:00+05:30,12.85,13.35,12.6,12.9,94715
2023-05-05 00:00:00+05:30,12.95,13.0,12.7,12.85,15433
2023-05-08 00:00:00+05:30,12.95,14.25,12.8,13.8,292716
2023-05-09 00:00:00+05:30,13.8,14.0,13.5,13.5,29964
2023-05-10 00:00:00+05:30,13.5,13.5,13.1,13.1,27844
2023-05-11 00:00:00+05:30,13.1,13.4,13.1,13.2,32865
2023-05-12 00:00:00+05:30,13.4,13.4,13.0,13.05,20811
2023-05-15 00:00:00+05:30,13.1,13.7,13.05,13.25,40407
2023-05-16 00:00:00+05:30,13.45,13.45,13.05,13.1,20477
2023-05-17 00:00:00+05:30,13.05,13.2,12.8,12.85,44517
2023-05-18 00:00:00+05:30,13.0,13.2,12.75,12.8,122584
2023-05-19 00:00:00+05:30,12.95,13.0,12.7,12.95,43391
2023-05-22 00:00:00+05:30,12.95,13.0,12.6,12.95,33677
2023-05-23 00:00:00+05:30,13.05,13.05,12.75,12.8,36906
2023-05-24 00:00:00+05:30,12.8,13.45,12.7,13.3,91142
2023-05-25 00:00:00+05:30,13.3,13.9,13.05,13.55,107762
2023-05-26 00:00:00+05:30,13.55,13.95,13.35,13.55,69704
2023-05-29 00:00:00+05:30,13.6,13.9,13.5,13.5,59427
2023-05-30 00:00:00+05:30,13.75,13.75,13.1,13.4,7102
2023-05-31 00:00:00+05:30,13.55,13.55,12.6,12.9,73407
2023-06-01 00:00:00+05:30,13.0,13.25,12.9,13.15,14121
2023-06-02 00:00:00+05:30,13.2,13.25,12.95,12.95,34554
2023-06-05 00:00:00+05:30,13.2,13.3,12.95,13.05,25800
2023-06-06 00:00:00+05:30,13.25,13.25,12.85,12.9,53223
2023-06-07 00:00:00+05:30,12.9,13.95,12.9,13.4,379055
2023-06-08 00:00:00+05:30,13.4,13.75,12.95,13.0,72170
2023-06-09 00:00:00+05:30,13.0,13.4,13.0,13.2,47457
2023-06-12 00:00:00+05:30,13.1,13.4,13.05,13.15,19511
2023-06-13 00:00:00+05:30,13.1,13.5,13.1,13.25,69487
2023-06-14 00:00:00+05:30,13.2,13.8,13.05,13.6,137447
2023-06-15 00:00:00+05:30,13.75,13.8,13.15,13.25,53466
2023-06-16 00:00:00+05:30,13.25,13.5,13.1,13.45,35712
2023-06-19 00:00:00+05:30,13.25,13.7,13.15,13.2,35306
2023-06-20 00:00:00+05:30,13.35,13.6,13.15,13.4,54384
2023-06-21 00:00:00+05:30,13.4,13.6,13.2,13.4,28021
2023-06-22 00:00:00+05:30,13.6,13.65,13.2,13.25,63592
2023-06-23 00:00:00+05:30,13.25,13.25,13.0,13.1,25770
2023-06-26 00:00:00+05:30,13.25,13.5,13.05,13.25,39287
2023-06-27 00:00:00+05:30,13.25,13.45,13.1,13.15,21179
2023-06-28 00:00:00+05:30,13.1,13.25,13.05,13.05,18003
2023-06-30 00:00:00+05:30,12.95,13.5,12.95,13.2,35450
2023-07-03 00:00:00+05:30,13.45,13.45,13.15,13.4,32766
2023-07-04 00:00:00+05:30,13.5,13.5,13.15,13.2,21348
2023-07-05 00:00:00+05:30,13.2,13.5,13.15,13.2,29920
2023-07-06 00:00:00+05:30,13.2,13.35,13.1,13.25,35865
2023-07-07 00:00:00+05:30,13.25,13.3,12.55,12.9,80502
2023-07-10 00:00:00+05:30,12.9,13.0,12.75,12.8,21224
2023-07-11 00:00:00+05:30,12.8,13.0,12.7,12.8,17037
2023-07-12 00:00:00+05:30,13.0,13.0,12.6,12.7,41933
2023-07-13 00:00:00+05:30,12.75,12.85,12.65,12.7,20198
2023-07-14 00:00:00+05:30,12.7,12.8,12.6,12.65,27678
2023-07-17 00:00:00+05:30,12.6,12.9,12.6,12.75,24144
2023-07-18 00:00:00+05:30,12.7,12.85,12.55,12.6,25982
2023-07-19 00:00:00+05:30,12.6,12.75,12.55,12.65,25872
2023-07-20 00:00:00+05:30,12.75,12.75,12.45,12.55,61917
2023-07-21 00:00:00+05:30,12.5,12.6,12.5,12.5,47815
2023-07-24 00:00:00+05:30,12.5,12.5,12.25,12.3,49225
2023-07-25 00:00:00+05:30,12.4,12.6,12.3,12.45,26571
2023-07-26 00:00:00+05:30,12.5,12.55,12.35,12.5,19922
2023-07-27 00:00:00+05:30,12.6,12.6,12.4,12.4,25966
2023-07-28 00:00:00+05:30,12.4,12.5,12.25,12.35,39887
2023-07-31 00:00:00+05:30,12.35,12.55,12.3,12.35,38504
2023-08-01 00:00:00+05:30,12.5,12.6,12.35,12.45,46949
2023-08-02 00:00:00+05:30,12.5,12.5,12.2,12.2,45963
2023-08-03 00:00:00+05:30,12.4,12.4,12.15,12.25,15672
2023-08-04 00:00:00+05:30,12.45,12.45,12.25,12.3,14086
2023-08-07 00:00:00+05:30,12.2,12.4,12.15,12.15,62814
2023-08-08 00:00:00+05:30,12.15,12.4,12.15,12.25,17359
2023-08-09 00:00:00+05:30,12.25,12.35,12.1,12.2,38536
2023-08-10 00:00:00+05:30,12.2,12.3,12.15,12.15,32586
2023-08-11 00:00:00+05:30,12.25,13.5,12.15,12.9,512852
2023-08-14 00:00:00+05:30,12.9,13.2,12.6,12.75,104174
2023-08-16 00:00:00+05:30,12.6,13.9,12.6,13.5,439086
2023-08-17 00:00:00+05:30,13.6,13.8,13.25,13.35,182585
2023-08-18 00:00:00+05:30,13.35,13.5,12.95,13.05,89271
2023-08-21 00:00:00+05:30,13.25,13.4,13.0,13.1,38510
2023-08-22 00:00:00+05:30,13.2,13.8,12.95,13.05,91362
2023-08-23 00:00:00+05:30,13.15,13.75,13.1,13.25,210215
2023-08-24 00:00:00+05:30,13.3,13.5,13.15,13.3,103660
2023-08-25 00:00:00+05:30,13.35,13.7,13.15,13.45,73262
2023-08-28 00:00:00+05:30,13.5,13.6,13.0,13.2,142296
2023-08-29 00:00:00+05:30,13.2,13.4,13.05,13.1,57892
2023-08-30 00:00:00+05:30,13.25,13.45,13.0,13.1,122109
2023-08-31 00:00:00+05:30,13.1,13.3,12.9,12.95,99024
2023-09-01 00:00:00+05:30,13.0,13.15,12.95,13.05,72154
2023-09-04 00:00:00+05:30,13.1,13.45,13.0,13.25,193449
2023-09-05 00:00:00+05:30,13.45,15.9,13.35,15.9,4035942
2023-09-06 00:00:00+05:30,16.1,17.4,15.05,16.75,2250822
2023-09-07 00:00:00+05:30,17.05,18.55,16.6,17.0,1367174
2023-09-08 00:00:00+05:30,17.4,17.4,16.1,16.25,426389
2023-09-11 00:00:00+05:30,16.5,16.65,16.05,16.15,138717
2023-09-12 00:00:00+05:30,16.35,16.35,14.8,14.95,333266
2023-09-13 00:00:00+05:30,14.85,15.8,14.55,15.65,221663
2023-09-14 00:00:00+05:30,15.95,16.0,15.5,15.55,81241
2023-09-15 00:00:00+05:30,15.5,16.5,15.4,16.2,340043
2023-09-18 00:00:00+05:30,16.45,16.45,15.5,15.75,97704
2023-09-20 00:00:00+05:30,15.7,15.7,15.05,15.2,123029
2023-09-21 00:00:00+05:30,15.15,15.75,15.1,15.2,71633
2023-09-22 00:00:00+05:30,15.2,15.4,14.95,15.05,51555
2023-09-25 00:00:00+05:30,15.3,15.65,15.15,15.4,75749
2023-09-26 00:00:00+05:30,15.5,15.5,15.05,15.1,130187
2023-09-27 00:00:00+05:30,15.3,15.4,14.8,15.0,56339
2023-09-28 00:00:00+05:30,15.0,15.3,14.75,14.8,91717
2023-09-29 00:00:00+05:30,14.8,15.0,14.6,14.7,34641
2023-10-03 00:00:00+05:30,14.8,15.0,14.6,14.85,39180
2023-10-04 00:00:00+05:30,15.0,15.0,14.8,14.95,50070
2023-10-05 00:00:00+05:30,14.9,15.0,14.55,14.7,32080
2023-10-06 00:00:00+05:30,14.95,15.25,14.75,15.05,49813
2023-10-09 00:00:00+05:30,15.05,15.15,14.6,14.7,38518
2023-10-10 00:00:00+05:30,14.9,15.05,14.4,14.6,69657
2023-10-11 00:00:00+05:30,14.65,16.3,14.6,16.15,721276
2023-10-12 00:00:00+05:30,16.4,16.4,15.5,15.9,198664
2023-10-13 00:00:00+05:30,16.0,16.0,15.5,15.55,105239
2023-10-16 00:00:00+05:30,15.8,16.0,15.15,15.4,205377
2023-10-17 00:00:00+05:30,15.45,15.7,15.25,15.35,93352
2023-10-18 00:00:00+05:30,15.35,15.5,14.95,15.1,108343
2023-10-19 00:00:00+05:30,15.1,15.2,14.8,14.95,83492
2023-10-20 00:00:00+05:30,15.05,15.4,14.8,15.0,42346
2023-10-23 00:00:00+05:30,15.2,15.2,13.55,13.8,97044
2023-10-25 00:00:00+05:30,14.05,14.55,13.8,14.05,422522
2023-10-26 00:00:00+05:30,13.85,14.1,13.25,13.5,142623
2023-10-27 00:00:00+05:30,13.5,14.1,13.5,13.7,328751
2023-10-30 00:00:00+05:30,13.7,14.1,13.65,13.75,229545
2023-10-31 00:00:00+05:30,13.75,13.95,13.6,13.8,42043
2023-11-01 00:00:00+05:30,14.0,14.1,13.7,13.8,276966
2023-11-02 00:00:00+05:30,13.8,14.2,13.8,13.9,500116
2023-11-03 00:00:00+05:30,14.1,14.4,14.0,14.05,255031
2023-11-06 00:00:00+05:30,14.0,14.7,14.0,14.5,814688
2023-11-07 00:00:00+05:30,14.7,14.7,14.4,14.45,156940
2023-11-08 00:00:00+05:30,14.75,15.05,14.6,14.8,431103
2023-11-09 00:00:00+05:30,14.75,15.05,14.35,14.45,635529
2023-11-10 00:00:00+05:30,14.65,16.2,14.45,15.65,1345542
2023-11-12 00:00:00+05:30,15.6,16.2,15.6,15.75,84669
2023-11-13 00:00:00+05:30,15.7,15.8,15.3,15.45,327788
2023-11-15 00:00:00+05:30,15.5,15.75,15.25,15.35,473832
2023-11-16 00:00:00+05:30,15.35,15.45,15.05,15.2,872176
2023-11-17 00:00:00+05:30,15.1,15.75,14.95,15.5,955462
2023-11-20 00:00:00+05:30,15.35,17.8,15.35,16.95,2020875
2023-11-21 00:00:00+05:30,17.75,18.2,17.3,17.95,1713511
2023-11-22 00:00:00+05:30,18.15,18.15,16.4,16.7,653775
2023-11-23 00:00:00+05:30,16.7,17.15,16.5,16.7,274110
2023-11-24 00:00:00+05:30,16.9,17.3,16.8,17.05,498725
2023-11-28 00:00:00+05:30,17.45,17.5,16.6,16.75,705319
2023-11-29 00:00:00+05:30,17.0,17.0,16.5,16.55,734543
2023-11-30 00:00:00+05:30,16.6,16.75,15.8,15.95,525311
2023-12-01 00:00:00+05:30,16.2,16.5,15.9,16.15,484883
2023-12-04 00:00:00+05:30,16.5,16.5,16.05,16.15,77410
2023-12-05 00:00:00+05:30,16.3,16.35,15.75,16.05,221430
2023-12-06 00:00:00+05:30,16.4,17.6,16.35,17.0,972702
2023-12-07 00:00:00+05:30,17.2,17.65,16.5,17.1,323111
2023-12-08 00:00:00+05:30,17.35,17.35,16.65,16.75,146779
2023-12-11 00:00:00+05:30,17.0,17.0,16.45,16.55,219606
2023-12-12 00:00:00+05:30,16.75,16.95,16.35,16.45,192802
2023-12-13 00:00:00+05:30,16.6,16.75,16.2,16.4,132498
2023-12-14 00:00:00+05:30,16.5,16.8,16.15,16.35,155896
2023-12-15 00:00:00+05:30,16.5,16.5,16.15,16.2,81797
2023-12-18 00:00:00+05:30,16.25,19.4,16.25,18.9,2511418
2023-12-19 00:00:00+05:30,19.6,19.8,18.05,18.95,1926599
2023-12-20 00:00:00+05:30,18.7,19.8,17.9,18.15,1198050
2023-12-21 00:00:00+05:30,18.4,19.3,17.6,18.95,753780
2023-12-22 00:00:00+05:30,19.35,19.35,18.15,18.35,283104
2023-12-26 00:00:00+05:30,18.6,18.85,17.75,18.2,254886
2023-12-27 00:00:00+05:30,18.25,18.7,17.3,17.5,285999
2023-12-28 00:00:00+05:30,17.6,17.7,16.5,16.65,429151
2023-12-29 00:00:00+05:30,16.8,17.95,16.75,17.5,225203
2024-01-01 00:00:00+05:30,17.7,19.05,17.55,18.3,536360
2024-01-02 00:00:00+05:30,18.75,20.8,18.45,20.25,2746516
2024-01-03 00:00:00+05:30,20.45,20.7,19.6,19.85,615802
2024-01-04 00:00:00+05:30,19.9,20.2,19.45,19.55,357173
2024-01-05 00:00:00+05:30,19.6,19.8,18.4,19.25,570521
2024-01-08 00:00:00+05:30,19.25,20.2,19.05,19.65,542363
2024-01-09 00:00:00+05:30,19.8,20.7,19.25,20.35,692641
2024-01-10 00:00:00+05:30,20.05,20.45,19.8,19.95,359423
2024-01-11 00:00:00+05:30,19.95,20.2,19.45,19.7,178537
2024-01-12 00:00:00+05:30,19.7,20.4,19.2,19.35,395051
2024-01-15 00:00:00+05:30,19.45,20.55,19.3,19.95,545691
2024-01-16 00:00:00+05:30,20.55,20.6,19.0,19.55,438396
2024-01-17 00:00:00+05:30,19.55,19.8,18.85,19.15,172470
2024-01-18 00:00:00+05:30,19.05,19.8,18.4,19.2,199832
2024-01-19 00:00:00+05:30,19.4,20.4,19.15,19.75,464185
2024-01-20 00:00:00+05:30,20.0,20.1,19.4,19.5,144974
2024-01-23 00:00:00+05:30,19.5,19.75,17.9,18.25,307197
2024-01-24 00:00:00+05:30,18.3,18.6,17.7,17.9,522103
2024-01-25 00:00:00+05:30,18.05,18.95,18.0,18.55,505999
2024-01-29 00:00:00+05:30,18.85,19.35,18.35,18.55,473863
2024-01-30 00:00:00+05:30,18.8,19.9,18.1,19.3,881136
2024-01-31 00:00:00+05:30,19.3,19.8,18.85,18.95,461047
2024-02-01 00:00:00+05:30,19.25,19.4,18.5,18.65,328657
2024-02-02 00:00:00+05:30,18.85,19.2,18.4,18.5,312814
2024-02-05 00:00:00+05:30,18.7,19.35,18.0,18.15,255041
2024-02-06 00:00:00+05:30,18.45,21.75,18.0,21.75,4434228
2024-02-07 00:00:00+05:30,21.9,24.35,20.5,23.05,6061557
2024-02-08 00:00:00+05:30,23.7,23.9,22.4,23.35,1453883
2024-02-09 00:00:00+05:30,24.0,24.0,21.0,21.95,1023722
2024-02-12 00:00:00+05:30,22.0,22.4,19.3,19.65,702268
2024-02-13 00:00:00+05:30,19.05,20.15,18.7,19.25,471798
2024-02-14 00:00:00+05:30,18.85,20.4,18.85,20.25,410323
2024-02-15 00:00:00+05:30,20.85,21.2,20.45,20.7,326424
2024-02-16 00:00:00+05:30,21.05,21.7,20.85,21.25,374675
2024-02-19 00:00:00+05:30,21.65,21.65,20.6,20.7,221074
2024-02-20 00:00:00+05:30,20.7,21.15,20.0,20.15,259170
2024-02-21 00:00:00+05:30,20.25,21.0,19.45,19.7,426046
2024-02-22 00:00:00+05:30,19.9,20.85,19.2,20.35,471362
2024-02-23 00:00:00+05:30,20.5,20.7,19.8,19.9,205478
2024-02-26 00:00:00+05:30,20.0,20.1,19.0,19.2,349526
2024-02-27 00:00:00+05:30,19.35,19.95,18.55,18.9,351210
2024-02-28 00:00:00+05:30,19.0,19.3,17.9,18.3,353315
2024-02-29 00:00:00+05:30,18.3,18.5,17.95,18.35,104803
2024-03-01 00:00:00+05:30,18.55,19.35,18.3,19.15,375337
2024-03-02 00:00:00+05:30,19.4,19.8,19.0,19.3,87777
2024-03-04 00:00:00+05:30,19.3,20.5,18.6,19.6,1032288
2024-03-05 00:00:00+05:30,19.6,20.7,19.15,19.4,430469
2024-03-06 00:00:00+05:30,19.5,19.6,18.35,18.85,259658
2024-03-07 00:00:00+05:30,18.6,19.2,18.6,18.75,93568
2024-03-11 00:00:00+05:30,18.95,18.95,17.9,18.2,166822
2024-03-12 00:00:00+05:30,18.15,18.25,16.6,16.85,278542
2024-03-13 00:00:00+05:30,16.6,17.05,15.2,15.4,326514
2024-03-14 00:00:00+05:30,15.3,16.15,14.8,15.75,323350
2024-03-15 00:00:00+05:30,15.9,16.3,15.55,15.9,139280
2024-03-18 00:00:00+05:30,15.65,16.3,15.6,15.95,101099
2024-03-19 00:00:00+05:30,15.65,16.1,15.15,15.35,156688
2024-03-20 00:00:00+05:30,15.25,15.65,14.55,14.9,175876
2024-03-21 00:00:00+05:30,15.0,16.5,14.95,16.05,618976
2024-03-22 00:00:00+05:30,16.05,16.15,15.6,15.75,155728
2024-03-26 00:00:00+05:30,16.0,16.15,15.4,15.5,123171
2024-03-27 00:00:00+05:30,15.4,15.75,14.5,14.8,307388
2024-03-28 00:00:00+05:30,15.0,15.45,14.55,14.65,164925
2024-04-01 00:00:00+05:30,14.5,16.2,14.4,16.1,220502
2024-04-02 00:00:00+05:30,16.05,16.75,15.8,16.6,154019
2024-04-03 00:00:00+05:30,16.95,17.6,16.55,17.3,301469
2024-04-04 00:00:00+05:30,17.95,20.2,17.1,19.55,1437274
2024-04-05 00:00:00+05:30,19.55,21.25,18.8,20.85,1624947
2024-04-08 00:00:00+05:30,21.55,21.55,19.6,19.75,367879
2024-04-09 00:00:00+05:30,19.95,20.9,19.4,19.5,248792
2024-04-10 00:00:00+05:30,19.55,20.2,19.2,19.35,168929
2024-04-12 00:00:00+05:30,19.05,19.9,18.3,18.9,238854
2024-04-15 00:00:00+05:30,17.8,19.3,17.3,19.1,367991
2024-04-16 00:00:00+05:30,19.1,21.0,18.5,21.0,1304407
2024-04-18 00:00:00+05:30,21.4,23.1,21.15,22.15,1986566
2024-04-19 00:00:00+05:30,22.0,22.25,20.9,22.1,346575
2024-04-22 00:00:00+05:30,23.05,23.2,21.6,22.45,371283
2024-04-23 00:00:00+05:30,22.05,22.9,21.8,22.05,245867
2024-04-24 00:00:00+05:30,22.0,22.5,21.9,22.0,287056
2024-04-25 00:00:00+05:30,22.25,22.25,21.0,21.35,173168
2024-04-26 00:00:00+05:30,21.35,21.8,21.35,21.6,106113
2024-04-29 00:00:00+05:30,21.95,21.95,21.5,21.7,117777
2024-04-30 00:00:00+05:30,22.0,22.7,21.65,22.05,256537
2024-05-02 00:00:00+05:30,22.35,23.25,21.15,22.9,800970
2024-05-03 00:00:00+05:30,22.95,23.0,22.4,22.6,178059
2024-05-06 00:00:00+05:30,22.75,22.85,22.15,22.45,193243
2024-05-07 00:00:00+05:30,23.0,23.0,21.8,22.1,146988
2024-05-08 00:00:00+05:30,22.5,22.7,21.95,22.05,86039
2024-05-09 00:00:00+05:30,22.2,22.25,20.15,20.8,112511
2024-05-10 00:00:00+05:30,20.4,20.85,20.15,20.6,42582
2024-05-13 00:00:00+05:30,20.6,20.85,19.6,20.2,52836
2024-05-14 00:00:00+05:30,19.8,22.05,19.7,21.55,173093
2024-05-15 00:00:00+05:30,21.75,22.25,21.0,21.5,73362
2024-05-16 00:00:00+05:30,21.9,21.9,21.0,21.05,55536
2024-05-17 00:00:00+05:30,20.6,22.2,20.6,21.45,160020
2024-05-18 00:00:00+05:30,21.45,21.85,21.0,21.4,11776
2024-05-21 00:00:00+05:30,21.0,22.0,20.5,21.25,167699
2024-05-22 00:00:00+05:30,21.4,21.45,20.7,21.0,65009
2024-05-23 00:00:00+05:30,21.0,21.35,20.65,20.7,26272
